                   X [km]                   Y [km]                 T [dias]
   -2846.7920711196243246   -5893.6056889199880970       0.0000000000000000
   -2718.6534598846492372   -5954.6313311416961369       0.0001501299054903
   -2589.8350199580172557   -6014.2468946400003915       0.0003002944947741
   -2460.3377995375726641   -6072.4518943220491565       0.0004505284513625
   -2330.1628523444137500   -6129.2458565727656605       0.0006008664582024
   -2199.3112376143167239   -6184.6283192587443409       0.0007513431973939
   -2067.7840200890873348   -6238.5988317318824556       0.0009019933499082
   -1935.5822700079465903   -6291.1569548332245176       0.0010528515953055
   -1802.7070630987939239   -6342.3022608964256506       0.0012039526114527
   -1669.1594805694542174   -6392.0343337512495054       0.0013553310742414
   -1534.9406090988888991   -6440.3527687269715898       0.0015070216573054
   -1400.0515408283465604   -6487.2571726556734575       0.0016590590317390
   -1264.4933733524828767   -6532.7471638754277592       0.0018114778658145
   -1128.2672097104170916   -6576.8223722333868864       0.0019643128247002
    -991.3741583767655356   -6619.4824390888115886       0.0021175985701786
    -853.8153332526285340   -6660.7270173160204649       0.0022713697603639
    -715.5918536565136492   -6700.5557713071893886       0.0024256610494205
    -576.7048443152331174   -6738.9683769750572537       0.0025805070872805
    -437.1554353547566620   -6775.9645217556007992       0.0027359425193622
    -296.9447622910045652   -6811.5439046105402667       0.0028920019862877
    -156.0739660206172061   -6845.7062360298414205       0.0030487201236016
     -14.5441928116708059   -6878.4512380340238451       0.0032061315614889
     127.6434057056519151   -6909.7786441764701522       0.0033642709244929
     270.4876725484389794   -6939.6881995455387369       0.0035231728312341
     413.9874453904482721   -6968.1796607666346972       0.0036828718941279
     558.1415565715784624   -6995.2527960042561972       0.0038434027191034
     702.9488331073687277   -7020.9073849639053151       0.0040047999053217
     848.4080966985317218   -7045.1432188936532839       0.0041670980448940
     994.5181637405619313   -7067.9601005861886733       0.0043303317226007
    1141.2778453333446578   -7089.3578443801025060       0.0044945355156097
    1288.6859472908488442   -7109.3362761616144780       0.0046597439931948
    1436.7412701508278587   -7127.8952333658789939       0.0048259917164551
    1585.4426091845939482   -7145.0345649783384943       0.0049933132380329
    1734.7887544068132684   -7160.7541315359640066       0.0051617431018331
    1884.7784905853527562   -7175.0538051283811001       0.0053313158427424
    2035.4105972511654272   -7187.9334693988830622       0.0055020659863472
    2186.6838487082295615   -7199.3930195454440764       0.0056740280486539
    2338.5970140435110807   -7209.4323623214822874       0.0058472365358073
    2491.1488571369959573   -7218.0514160367192744       0.0060217259438100
    2644.3381366717235323   -7225.2501105577439375       0.0061975307582418
    2798.1636061439262448   -7231.0283873086955282       0.0063746854539790
    2952.6240138731186562   -7235.3861992716019813       0.0065532244949137
    3107.7181030123301753   -7238.3235109868810468       0.0067331823336739
    3263.4446115583127721   -7239.8402985535849439       0.0069145934113426
    3419.8022723617987140   -7239.9365496295731646       0.0070974921571777
    3576.7898131378474318   -7238.6122634316734548       0.0072819129883322
    3734.4059564761359979   -7235.8674507355863170       0.0074678903095736
    3892.6494198514337768   -7231.7021338759313949       0.0076554585130044
    4051.5189156339747569   -7226.1163467459564345       0.0078446519777818
    4211.0131510999590319   -7219.1101347973090014       0.0080355050698386
    4371.1308284420574637   -7210.6835550396372128       0.0082280521416028
    4531.8706447800095702   -7200.8366760401813735       0.0084223275317189
    4693.2312921711891249   -7189.5695779231773486       0.0086183655647674
    4855.2114576212397878   -7176.8823523691680748       0.0088162005509869
    5017.8098230947853153   -7162.7751026143223498       0.0090158667859935
    5181.0250655261734209   -7147.2479434496071917       0.0092173985505029
    5344.8558568301614287   -7130.3010012197319156       0.0094208301100506
    5509.3008639128356663   -7111.9344138223113987       0.0096261957147137
    5674.3587486823298605   -7092.1483307065300323       0.0098335295988317
    5840.0281680598445746   -7070.9429128721158122       0.0100428659807284
    6006.3077739904847476   -7048.3183328679124315       0.0102542390624330
    6173.1962134542318381   -7024.2747747904904827       0.0104676830294023
    6340.6921284770205602   -6998.8124342827031796       0.0106832320502421
    6508.7941561417510457   -6971.9315185320810997       0.0109009202764294
    6677.5009285993137382   -6943.6322462690459361       0.0111207818420344
    6846.8110730798489385   -6913.9148477652870497       0.0113428508634430
    7016.7232119038071687   -6882.7795648317787709       0.0115671614390785
    7187.2359624932441875   -6850.2266508168677319       0.0117937476491253
    7358.3479373829541146   -6816.2563706041401019       0.0120226435552504
    7530.0577442318844987   -6780.8690006103488486       0.0122538832003269
    7702.3639858344340610   -6744.0648287831536436       0.0124875006081571
    7875.2652601317304288   -6705.8441545986988785       0.0127235297831952
    8048.7601602232080040   -6666.2072890592999102       0.0129620047102706
    8222.8472743778438598   -6625.1545546907645985       0.0132029593543121
    8397.5251860458574811   -6582.6862855399303953       0.0134464276600704
    8572.7924738700803573   -6538.8028271718048927       0.0136924435518430
    8748.6477116976111574   -6493.5045366668518909       0.0139410409331974
    8925.0894685913681315   -6446.7917826180291740       0.0141922536866955
    9102.1163088417652034   -6398.6649451278099150       0.0144461156736178
    9279.7267919783535035   -6349.1244158050812985       0.0147026607336881
    9457.9194727816648083   -6298.1705977620185877       0.0149619226847979
    9636.6929012947402953   -6245.8039056106563294       0.0152239353227314
    9816.0456228352104517   -6192.0247654597133078       0.0154887324208902
    9995.9761780068511143   -6136.8336149109254620       0.0157563477300190
   10176.4831027117070334   -6080.2309030556598373       0.0160268149779303
   10357.5649281618443638   -6022.2170904711429102       0.0163001678692308
   10539.2201808913214336   -5962.7926492167352990       0.0165764400850463
   10721.4473827683032141   -5901.9580628301609977       0.0168556652827480
   10904.2450510068883887   -5839.7138263234683109       0.0171378770956788
   11087.6116981793547893   -5776.0604461790808273       0.0174231091328795
   11271.5458322281483561   -5710.9984403456373911       0.0177113949788152
   11456.0459564780758228   -5644.5283382337829607       0.0180027681931019
   11641.1105696485228691   -5576.6506807118976212       0.0182972623102340
   11826.7381658655194769   -5507.3660201016173232       0.0185949108393110
   12012.9272346741545334   -5436.6749201734055532       0.0188957472637644
   12199.6762610508230864   -5364.5779561419667516       0.0191998050410866
   12386.9837254154663242   -5291.0757146615069360       0.0195071176025570
   12574.8481036440971366   -5216.1687938210443463       0.0198177183529712
   12763.2678670810200856   -5139.8578031394526988       0.0201316406703686
   12952.2414825514297263   -5062.1433635605781092       0.0204489179057610
   13141.7674123737779155   -4983.0261074481404648       0.0207695833828613
   13331.8441143723375717   -4902.5066785805984182       0.0210936703978118
   13522.4700418897573400   -4820.5857321459216109       0.0214212122189143
   13713.6436437996035238   -4737.2639347362555782       0.0217522420863582
   13905.3633645189711388   -4652.5419643424747846       0.0220867932119511
   14097.6276440212986927   -4566.4205103487183806       0.0224248987788476
   14290.4349178487973404   -4478.9002735267176831       0.0227665919412801
   14483.7836171253784414   -4389.9819660301227486       0.0231119058242885
   14677.6721685694337793   -4299.6663113887316285       0.0234608735234510
   14872.0989945064684434   -4207.9540445025759254       0.0238135281046145
   15067.0625128820956888   -4114.8459116359244945       0.0241699026036255
   15262.5611372748553549   -4020.3426704112530388       0.0245300300260619
   15458.5932769090286456   -3924.4450898030363533       0.0248939433469637
   15655.1573366678567254   -3827.1539501315455709       0.0252616755105650
   15852.2517171061444969   -3728.4700430564225826       0.0256332594300259
   16049.8748144635810604   -3628.3941715703140289       0.0260087279871649
   16248.0250206776436244   -3526.9271499922965631       0.0263881140321910
   16446.7007233967378852   -3424.0698039612602770       0.0267714503834363
   16645.9003059932547330   -3319.8229704291752569       0.0271587698270897
   16845.6221475768288656   -3214.1874976543217599       0.0275501051169292
   17045.8646230073754850   -3107.1642451943321248       0.0279454889740557
   17246.6261029084962502   -2998.7540838992376848       0.0283449540866275
   17447.9049536805359821   -2888.9578959043792565       0.0287485331095927
   17649.6995375141304976   -2777.7765746232125821       0.0291562586644254
   17852.0082124032669526   -2665.2110247400455592       0.0295681633388586
   18054.8293321588207618   -2551.2621622026831574       0.0299842796866202
   18258.1612464218233072   -2435.9309142149550098       0.0304046402271670
   18462.0023006771043583   -2319.2182192292116270       0.0308292774454216
   18666.3508362664433662   -2201.1250269386264335       0.0312582237915065
   18871.2051904023392126   -2081.6522982695350947       0.0316915116804811
   19076.5636961814598180   -1960.8010053735631573       0.0321291734920774
   19282.4246825980881113   -1838.5721316197486885       0.0325712415704370
   19488.7864745578881411   -1714.9666715865268998       0.0330177482238473
   19695.6473928914238058   -1589.9856310536251840       0.0334687257244792
   19903.0057543678667571   -1463.6300269939124519       0.0339242063081240
   20110.8598717086861143   -1335.9008875650988557       0.0343842221739315
   20319.2080536014036625   -1206.7992521013663918       0.0348488054841478
   20528.0486047132835665   -1076.3261711049317455       0.0353179883638537
   20737.3798257052039844    -944.4827062374830575       0.0357918029007031
   20947.2000132454522827    -811.2699303115372231       0.0362702811446620
   21157.5074600235566322    -676.6889272817347774       0.0367534551077479
   21368.3004547642631223    -540.7407922359930126       0.0372413567637690
   21579.5772822413528047    -403.4266313866088467       0.0377340180480643
   21791.3362232916879293    -264.7475620612490843       0.0382314708572436
   22003.5755548291344894    -124.7047126938778803       0.0387337470489278
   22216.2935498586302856      16.7007771844560935       0.0392408784414901
   22429.4884774902384379     159.4677569548743747       0.0397528968137969
   22643.1586029531499662     303.5950649200082125       0.0402698339049486
   22857.3021876099555811     449.0815283134957667       0.0407917214140228
   23071.9174889706046088     595.9259633095178970       0.0413185909998146
   23287.0027607067713689     744.1271750323720653       0.0418504742805805
   23502.5562526658941351     893.6839575662870629       0.0423874028337800
   23718.5762108855378756    1044.5950939651677345       0.0429294081958195
   23935.0608776076041977    1196.8593562625169398       0.0434765218617950
   24152.0084912927050027    1350.4755054814340838       0.0440287752852365
   24369.4172866343433270    1505.4422916446919771       0.0445861998778516
   24587.2854945734761714    1661.7584537848927084       0.0451488270092694
   24805.6113423127790156    1819.4227199547779037       0.0457166880067869
   25024.3930533310849569    1978.4338072375119282       0.0462898141551124
   25243.6288473978893308    2138.7904217571503978       0.0468682366961116
   25463.3169405877597455    2300.4912586892010040       0.0474519868285534
   25683.4555452949825849    2463.5350022711904785       0.0480410957078562
   25904.0428702479330241    2627.9203258133752570       0.0486355944458340
   26125.0771205237979302    2793.6458917095883407       0.0492355141104435
   26346.5564975631168636    2960.7103514480736521       0.0498408857255311
   26568.4791991843776486    3129.1123456224549955       0.0504517402705807
   26790.8434195988229476    3298.8505039428432610       0.0510681086804616
   27013.6473494249512441    3469.9234452469427197       0.0516900218451764
   27236.8891757034180046    3642.3297775113096577       0.0523175106096103
   27460.5670819116239727    3816.0680978626623983       0.0529506057732795
   27684.6792479786745389    3991.1369925893250183       0.0535893380900808
   27909.2238503000298806    4167.5350371527301832       0.0542337382680415
   28134.1990617524279514    4345.2607961989679097       0.0548838369690695
   28359.6030517087019689    4524.3128235704998588       0.0555396648087035
   28585.4339860527870769    4704.6896623179218295       0.0562012523558644
   28811.6900271944832639    4886.3898447118099284       0.0568686301326059
   29038.3693340845384228    5069.4118922546913382       0.0575418286138667
   29265.4700622295567882    5253.7543156930387340       0.0582208782272225
   29492.9903637070201512    5439.4156150294002146       0.0589058093526378
   29720.9283871803818329    5626.3942795346147250       0.0595966523222196
   29949.2822779140042257    5814.6887877600938737       0.0602934374199697
   30178.0501777884237526    6004.2976075502092499       0.0609961948815391
   30407.2302253153065976    6195.2191960547479539       0.0617049548939813
   30636.8205556527209410    6387.4519997415236503       0.0624197475955070
   30866.8193006202091055    6580.9944544088866678       0.0631406030752389
   31097.2245887140779814    6775.8449851986060821       0.0638675513729667
   31328.0345451225330180    6972.0020066085562576       0.0646006224789027
   31559.2472917410232185    7169.4639225057226213       0.0653398463334380
   31790.8609471874806331    7368.2291261391328590       0.0660852528268982
   32022.8736268176471640    7568.2960001529208967       0.0668368717993011
   32255.2834427404050075    7769.6629165995227595       0.0675947330401136
   32488.0885038330925454    7972.3282369528942581       0.0683588662880085
   32721.2869157569548406    8176.2903121218741944       0.0691293012306240
   32954.8767809725322877    8381.5474824635457480       0.0699060675043206
   33188.8561987550856429    8588.0980777968416078       0.0706891946939409
   33423.2232652101083659    8795.9404174160335970       0.0714787123325686
   33657.9760732888171333    9005.0728101044496725       0.0722746499012885
   33893.1127128035659553    9215.4935541482518602       0.0730770368289457
   34128.6312704435113119    9427.2009373502241942       0.0738859024919075
   34364.5298297901244950    9640.1932370437989448       0.0747012762138230
   34600.8064713327839854    9854.4687201070046285       0.0755231872653853
   34837.4592724844624172   10070.0256429765322537       0.0763516648640934
   35074.4863075972680235   10286.8622516620871465       0.0771867381740139
   35311.8856479781388771   10504.9767817604260927       0.0780284363055440
   35549.6553619046244421   10724.3674584699274419       0.0788767883151747
   35787.7935146404706757   10945.0324966048901842       0.0797318232052545
   36026.2981684514888912   11166.9701006101277017       0.0805935699237525
   36265.1673826212281710   11390.1784645755833481       0.0814620573640244
   36504.3992134668224026   11614.6557722509915038       0.0823373143645758
   36743.9917143547572778   11840.4001970606404939       0.0832193697088288
   36983.9429357167900889   12067.4099021183028526       0.0841082521248872
   37224.2509250657312805   12295.6830402421437611       0.0850039902853021
   37464.9137270113496925   12525.2177539697495376       0.0859066128068405
   37705.9293832763069076   12756.0121755732016027       0.0868161482502501
   37947.2959327121498063   12988.0644270743705420       0.0877326251200288
   38189.0114113150775665   13221.3726202601210389       0.0886560718641916
   38431.0738522421452217   13455.9348566977150767       0.0895865168740397
   38673.4812858271616278   13691.7492277502042270       0.0905239884839288
   38916.2317395966674667   13928.8138145920547686       0.0914685149710402
   39159.3232382860805956   14167.1266882246436580       0.0924201245551483
   39402.7538038557104301   14406.6859094920619100       0.0933788453983926
   39646.5214555069251219   14647.4895290968470363       0.0943447056050487
   39890.6242096981877694   14889.5355876158391766       0.0953177332212985
   40135.0600801611435600   15132.8221155161045317       0.0962979562350026
   40379.8270779170270544   15377.3471331710134109       0.0972854025754726
   40624.9232112925456022   15623.1086508763382881       0.0982801001132443
   40870.3464859363157302   15870.1046688664046087       0.0992820766598494
   41116.0949048349139048   16118.3331773303962109       0.1002913599675907
   41362.1664683293056441   16367.7921564287153160       0.1013079777293158
   41608.5591741309544886   16618.4795763093570713       0.1023319575781920
   41855.2710173382220091   16870.3933971245278371       0.1033633270874805
   42102.2999904526150203   17123.5315690471979906       0.1044021137703130
   42349.6440833951346576   17377.8920322876729188       0.1054483450794678
   42597.3012835227200412   17633.4727171105623711       0.1065020484071458
   42845.2695756445100415   17890.2715438514678681       0.1075632510847480
   43093.5469420382069075   18148.2864229339429585       0.1086319803826534
   43342.1313624667091062   18407.5152548865225981       0.1097082635099963
   43591.0208141943512601   18667.9559303597488906       0.1107921276144455
   43840.2132720033550868   18929.6063301434514869       0.1118835997819835
   44089.7067082104549627   19192.4643251837806019       0.1129827070366856
   44339.4990926833270350   19456.5277766008148319       0.1140894763405004
   44589.5883928570765420   19721.7945357057178626       0.1152039345930303
   44839.9725737507906160   19988.2624440183353727       0.1163261086313123
   45090.6495979840765358   20255.9293332847228157       0.1174560252296003
   45341.6174257937673246   20524.7930254948914808       0.1185937110991466
   45592.8740150503144832   20794.8513329003435501       0.1197391928879851
   45844.4173212745590718   21066.1020580320400768       0.1208924971807138
   46096.2452976543718250   21338.5429937181797868       0.1220536504982792
   46348.3558950611695764   21612.1719231022179883       0.1232226792977596
   46600.7470620667518233   21886.9866196609400504       0.1243996099721511
   46853.4167449598244275   22162.9848472223675344       0.1255844688501517
   47106.3628877629016642   22440.1643599843009724       0.1267772821959474
   47359.5834322489172337   22718.5229025322660164       0.1279780762089989
   47613.0763179579662392   22998.0582098580780439       0.1291868770238277
   47866.8394822141053737   23278.7680073781339161       0.1304037107098039
   48120.8708601421021740   23560.6500109520384285       0.1316286032709343
   48375.1683846843370702   23843.7019269011034339       0.1328615806456500
   48629.7299866175162606   24127.9214520270834328       0.1341026687065965
