                   X [km]                   Y [km]                 T [dias]
   -2855.0471165072235635   -5889.6111140875418641       0.0000000000000000
   -2727.0402442415961559   -5950.7944931477850332       0.0001500776101440
   -2598.3520440173842871   -6010.5697284061143364       0.0003001898663208
   -2468.9835635566837482   -6068.9363331991753512       0.0004503714142811
   -2338.9358561201142948   -6125.8938323320198833       0.0006006568992116
   -2208.2099804982549358   -6181.4417620820031516       0.0007510809654527
   -2076.8070010030528465   -6235.5796702026254934       0.0009016782562164
   -1944.7279874591054067   -6288.3071159270803037       0.0010524834133045
   -1811.9740151950090876   -6339.6236699720157048       0.0012035310768265
   -1678.5461650345384896   -6389.5289145408050899       0.0013548558849175
   -1544.4455232879117830   -6438.0224433271878297       0.0015064924734562
   -1409.6731817429038074   -6485.1038615184115770       0.0016584754757828
   -1274.2302376559732693   -6530.7727857985182709       0.0018108395224173
   -1138.1177937433267289   -6575.0288443514409664       0.0019636192407774
   -1001.3369581719374537   -6617.8716768640260852       0.0021168492548965
    -863.8888445505285745   -6659.3009345289983685       0.0022705641851420
    -725.7745719205030355   -6699.3162800477321071       0.0024247986479332
    -586.9952647468373925   -6737.9173876331342399       0.0025795872554597
    -447.5520529089240540   -6775.1039430121436453       0.0027349646153995
    -307.4460716913623628   -6810.8756434283159251       0.0028909653306371
    -166.6784617747385653   -6845.2321976444600296       0.0030476239989821
     -25.2503692263176802   -6878.1733259447746605       0.0032049752128872
     116.8370545092802928   -6909.6987601371793062       0.0033630535591669
     259.5826526194505846   -6939.8082435556898417       0.0035218936187155
     402.9852629330250693   -6968.5015310622302422       0.0036815299662258
     547.0437179297372268   -6995.7783890488481120       0.0038419971699076
     691.7568447497236548   -7021.6385954394672808       0.0040033297912064
     837.1234652030761936   -7046.0819396918413986       0.0041655623845216
     983.1423957794285116   -7069.1082227990900719       0.0043287294969256
    1129.8124476575960671   -7090.7172572914751072       0.0044928656678824
    1277.1324267152560878   -7110.9088672378302363       0.0046580054289660
    1425.1011335386660903   -7129.6828882470754252       0.0048241833035801
    1573.7173634324353770   -7147.0391674694701578       0.0049914338066762
    1722.9799064293226820   -7162.9775635979203798       0.0051597914444732
    1872.8875473000969123   -7177.4979468690880822       0.0053292907141759
    2023.4390655634181257   -7190.6001990644444959       0.0054999661036946
    2174.6332354958017277   -7202.2842135113369295       0.0056718520913643
    2326.4688261415512898   -7212.5498950836508811       0.0058449831456636
    2478.9446013228343872   -7221.3971602028041161       0.0060193937249344
    2632.0593196497097779   -7228.8259368383069159       0.0061951182771014
    2785.8117345302584908   -7234.8361645083878102       0.0063721912393913
    2940.2005941806833107   -7239.4277942803855694       0.0065506470380528
    3095.2246416355715155   -7242.6007887713185482       0.0067305200880762
    3250.8826147580925863   -7244.3551221480975073       0.0069118447929130
    3407.1732462502623093   -7244.6907801277102408       0.0070946555441961
    3564.0952636632628128   -7243.6077599773570910       0.0072789867214596
    3721.6473894078335434   -7241.1060705145109750       0.0074648726918591
    3879.8283407646595151   -7237.1857321068464444       0.0076523478098916
    4038.6368298947936637   -7231.8467766720077634       0.0078414464171160
    4198.0715638501324065   -7225.0892476773633462       0.0080322028418735
    4358.1312445840085275   -7216.9132001397310887       0.0082246513990082
    4518.8145689616840173   -7207.3187006248463149       0.0084188263895875
    4680.1202287710229939   -7196.3058272468742871       0.0086147621006229
    4842.0469107330636689   -7183.8746696676980719       0.0088124928047909
    5004.5932965128222349   -7170.0253290963164545       0.0090120527601541
    5167.7580627298866602   -7154.7579182878544088       0.0092134762098821
    5331.5398809693397197   -7138.0725615428200399       0.0094167973819726
    5495.9374177924337346   -7119.9693947059240600       0.0096220504889731
    5660.9493347475918199   -7100.4485651651521039       0.0098292697277021
    5826.5742883811490174   -7079.5102318503695642       0.0100384892789705
    5992.8109302484053842   -7057.1545652321829039       0.0102497433073039
    6159.6579069245863138   -7033.3817473205108399       0.0104630659606639
    6327.1138600157955807   -7008.1919716630254698       0.0106784913701703
    6495.1774261701793876   -6981.5854433437152693       0.0108960536498231
    6663.8472370889039667   -6953.5623789810670132       0.0111157868962251
    6833.1219195373996627   -6924.1230067264077661       0.0113377251883038
    7003.0000953565149757   -6893.2675662620313233       0.0115619025870344
    7173.4803814736796994   -6860.9963087991982320       0.0117883531351621
    7344.5613899142454102   -6827.3094970761276272       0.0120171108569252
    7516.2417278127550162   -6792.2074053558762898       0.0122482097577781
    7688.5199974242250391   -6755.6903194240339872       0.0124816838241143
    7861.3947961356479937   -6717.7585365864970299       0.0127175670229898
    8034.8647164772864926   -6678.4123656669517004       0.0129558933018463
    8208.9283461342129158   -6637.6521270044249832       0.0131966965882354
    8383.5842679577872332   -6595.4781524506552159       0.0134400107895417
    8558.8310599771739362   -6551.8907853673836144       0.0136858697927072
    8734.6672954109344573   -6506.8903806235575757       0.0139343074639553
    8911.0915426786687021   -6460.4773045924684993       0.0141853576485147
    9088.1023654126111069   -6412.6519351487168024       0.0144390541703447
    9265.6983224693922239   -6363.4146616652096782       0.0146954308318588
    9443.8779679417184525   -6312.7658850099160190       0.0149545214136503
    9622.6398511701663665   -6260.7060175426468049       0.0152163596742169
    9801.9825167550243350   -6207.2354831117008871       0.0154809793496860
    9981.9045045680195472   -6152.3547170503534289       0.0157484141535397
   10162.4043497644106537   -6096.0641661734180161       0.0160186977763408
   10343.4805827947257058   -6038.3642887735122713       0.0162918638854582
   10525.1317294168165972   -5979.2555546173744006       0.0165679461247930
   10707.3563107078643952   -5918.7384449420360397       0.0168469781145042
   10890.1528430763501092   -5856.8134524508668619       0.0171289934507356
   11073.5198382742491958   -5793.4810813096319180       0.0174140257053416
   11257.4558034090223373   -5728.7418471423134179       0.0177021084256145
   11441.9592409558554209   -5662.5962770269516113       0.0179932751340105
   11627.0286487698449491   -5595.0449094913801673       0.0182875593278781
   11812.6625200981870876   -5526.0882945087741973       0.0185849944791842
   11998.8593435924594814   -5455.7269934932201068       0.0188856140342419
   12185.6176033209758316   -5383.9615792951390176       0.0191894514134387
   12372.9357787810149603   -5310.7926361966046898       0.0194965400109635
   12560.8123449113372772   -5236.2207599066141483       0.0198069131945355
   12749.2457721044829668   -5160.2465575561982405       0.0201206043051325
   12938.2345262193448434   -5082.8706476935449246       0.0204376466567188
   13127.7770685935283836   -5004.0936602788797245       0.0207580735359745
   13317.8718560559482285   -4923.9162366793952970       0.0210819182020245
   13508.5173409394046757   -4842.3390296640063752       0.0214092138861676
   13699.7119710931874579   -4759.3627033980628767       0.0217399937916058
   13891.4541898956249497   -4674.9879334378947533       0.0220742910931742
   14083.7424362668789399   -4589.2154067253477479       0.0224121389370709
   14276.5751446815611416   -4502.0458215821827253       0.0227535704405868
   14469.9507451815479726   -4413.4798877043940593       0.0230986186918367
   14663.8676633887025673   -4323.5183261564134227       0.0234473167494889
   14858.3243205177477648   -4232.1618693652726506       0.0237996976424972
   15053.3191333890554233   -4139.4112611145956180       0.0241557943698306
   15248.8505144415921677   -4045.2672565385801136       0.0245156399002063
   15444.9168717458505853   -3949.7306221158437438       0.0248792671718199
   15641.5166090167476796   -3852.8021356631657000       0.0252467090920778
   15838.6481256266706623   -3754.4825863291739552       0.0256179985373294
   16036.3098166184699949   -3654.7727745878887617       0.0259931683525989
   16234.5000727186252334   -3553.6735122322688767       0.0263722513513187
   16433.2172803501707676   -3451.1856223675194997       0.0267552803150616
   16632.4598216460472031   -3347.3099394044706969       0.0271422879932741
   16832.2260744620689366   -3242.0473090527157183       0.0275333071030096
   17032.5144123902828142   -3135.3985883137797828       0.0279283703286626
   17233.3232047721103299   -3027.3646454741015077       0.0283275103217020
   17434.6508167116880941   -2917.9463600979938747       0.0287307597004054
   17636.4956090891646454   -2807.1446230204678614       0.0291381510495936
   17838.8559385740118159   -2694.9603363399855880       0.0295497169203656
   18041.7301576384306827   -2581.3944134110993218       0.0299654898298329
   18245.1166145707866235   -2466.4477788370454618       0.0303855022608555
   18449.0136534890079929   -2350.1213684622002802       0.0308097866617770
   18653.4196143540648336   -2232.4161293644438047       0.0312383754461603
   18858.3328329836149351   -2113.3330198474859571       0.0316713009925243
   19063.7516410652751802   -1992.8730094330344400       0.0321085956440796
   19269.6743661705768318   -1871.0370788529085075       0.0325502917084657
   19476.0993317682186898   -1747.8262200410629248       0.0329964214574876
   19683.0248572380151018   -1623.2414361255164295       0.0334470171268534
   19890.4492578843310184   -1497.2837414201537740       0.0339021109159113
   20098.3708449499536073   -1369.9541614165023020       0.0343617349873883
   20306.7879256298365362   -1241.2537327753645968       0.0348259214671275
   20515.6988030847860500   -1111.1835033183808719       0.0352947024438271
   20725.1017764553726010    -979.7445320195179193       0.0357681099687788
   20934.9951408757297031    -846.9378889964031032       0.0362461760556070
   21145.3771874874546484    -712.7646555016571028       0.0367289326800083
   21356.2462034534546547    -577.2259239140637419       0.0372164117794909
   21567.6004719720913272    -440.3227977296947415       0.0377086452531148
   21779.4382722908376309    -302.0563915528974803       0.0382056649612320
   21991.7578797205387673    -162.4278310872551572       0.0387075027252270
   22204.5575656494693249     -21.4382531264006815       0.0392141903272579
   22417.8355975571757881     120.9111944552257256       0.0397257595099976
   22631.5902390288210881     264.6193527117523558       0.0402422419763754
   22845.8197497691762692     409.6850516352673139       0.0407636693893186
   23060.5223856168449856     556.1071101653765254       0.0412900733714951
   23275.6963985585098271     703.8843361988191418       0.0418214855050559
   23491.3400367429894686     853.0155265991420492       0.0423579373313778
   23707.4515444957978616    1003.4994672065197392       0.0428994603508064
   23924.0291623330958828    1155.3349328476583651       0.0434460860224001
   24141.0711269762468874    1308.5206873457314032       0.0439978457636740
   24358.5756713661721733    1463.0554835304446897       0.0445547709503434
   24576.5410246775718406    1618.9380632482452711       0.0451168929160693
   24794.9654123335276381    1776.1671573724897826       0.0456842429522027
   25013.8470560197783925    1934.7414858138497493       0.0462568523075296
   25233.1841736993701488    2094.6597575306573162       0.0468347521880177
   25452.9749796270371007    2255.9206705394790333       0.0474179737565609
   25673.2176843638553692    2418.5229119257037382       0.0480065481327267
   25893.9104947916057426    2582.4651578541870549       0.0486005063925022
   26115.0516141276530107    2747.7460735801118972       0.0491998795680413
   26336.6392419393378077    2914.3643134597418793       0.0498046986474124
   26558.6715741587504453    3082.3185209615112399       0.0504149945743455
   26781.1468030974356225    3251.6073286769633341       0.0510307982479803
   27004.0631174609952723    3422.2293583319224126       0.0516521405226156
   27227.4187023639751715    3594.1832207976967766       0.0522790522074565
   27451.2117393445405469    3767.4675161024515546       0.0529115640663652
   27675.4404063793663227    3942.0808334425237263       0.0535497068176093
   27900.1028778983018128    4118.0217511939390533       0.0541935111336123
   28125.1973247995301790    4295.2888369240281463       0.0548430076407038
   28350.7219144640876038    4473.8806474029815945       0.0554982269188702
   28576.6748107711573539    4653.7957286157688941       0.0561591995015055
   28803.0541741127381101    4835.0326157738063557       0.0568259558751627
   29029.8581614087452181    5017.5898333269515206       0.0574985264793061
   29257.0849261219773325    5201.4658949755730646       0.0581769417060630
   29484.7326182732358575    5386.6593036825388481       0.0588612318999763
   29712.7993844562006416    5573.1685516855059177       0.0595514273577575
   29941.2833678527458687    5760.9921205091359298       0.0602475583280402
   30170.1827082479285309    5950.1284809774770110       0.0609496550111337
   30399.4955420451078680    6140.5760932263883660       0.0616577475587770
   30629.2200022811848612    6332.3334067161376879       0.0623718660738933
   30859.3542186417580524    6525.3988602439803799       0.0630920406103456
   31089.8963174764721771    6719.7708819568733816       0.0638183011726908
   31320.8444218140757584    6915.4478893642453841       0.0645506777159367
   31552.1966513778097578    7112.4282893509653150       0.0652892001452970
   31783.9511226007125515    7310.7104781902053219       0.0660338983159486
   32016.1059486410194950    7510.2928415565993419       0.0667848020327882
   32248.6592393973733124    7711.1737545393389155       0.0675419410501896
   32481.6091015242782305    7913.3515816553372133       0.0683053450717619
   32714.9536384476487001    8116.8246768626977428       0.0690750437501068
   32948.6909503799906815    8321.5913835739411297       0.0698510666865781
   33182.8191343361104373    8527.6500346696557244       0.0706334434310402
   33417.3362841484922683    8734.9989525119617610       0.0714222034816276
   33652.2404904827781138    8943.6364489581737871       0.0722173762845048
   33887.5298408534290502    9153.5608253745995171       0.0730189912336263
   34123.2024196392012527    9364.7703726503750659       0.0738270776704979
   34359.2563080987602007    9577.2633712112692592       0.0746416648839372
   34595.6895843864040216    9791.0380910338353715       0.0754627821098352
   34832.5003235675176256   10006.0927916593755072       0.0762904585309190
   35069.6865976343906368   10222.4257222081796499       0.0771247232765131
   35307.2464755219043582   10440.0351213937537977       0.0779656054223029
   35545.1780231232114602   10658.9192175371626945       0.0788131339900981
   35783.4793033054229454   10879.0762285814216739       0.0796673379475959
   36022.1483759255861514   11100.5043621061449812       0.0805282462081456
   36261.1832978462043684   11323.2018153418921429       0.0813958876305132
   36500.5821229513385333   11547.1667751851018693       0.0822702910186460
   36740.3429021621850552   11772.3974182126639789       0.0831514851214385
   36980.4636834531265777   11998.8919106968569395       0.0840394986324981
   37220.9425118676153943   12226.6484086203035986       0.0849343601899120
   37461.7774295339258970   12455.6650576908650692       0.0858360983760133
   37702.9664756813363056   12685.9399933568911365       0.0867447417171487
   37944.5076866558956681   12917.4713408222469297       0.0876603186834464
   38186.3990959364964510   13150.2572150617143052       0.0885828576885836
   38428.6387341508743702   13384.2957208362186066       0.0895123870895564
   38671.2246290916809812   13619.5849527083682915       0.0904489351864476
   38914.1548057324107504   13856.1229950578890566       0.0913925302221972
   39157.4272862436555442   14093.9079220972525945       0.0923432003823720
   39401.0400900090680807   14332.9377978873508255       0.0933009737949366
   39644.9912336415654863   14573.2106763532319746       0.0942658785300236
   39889.2787309994455427   14814.7246013000312814       0.0952379425997058
   40133.9005932025684160   15057.4776064287980262       0.0962171939577683
   40378.8548286485238350   15301.4677153524880850       0.0972036604994794
   40624.1394430289146840   15546.6929416122384282       0.0981973700613659
   40869.7524393454732490   15793.1512886932559923       0.0991983504209841
   41115.6918179264466744   16040.8407500413377420       0.1002066292966951
   41361.9555764428441762   16289.7593090790869610       0.1012222343474390
   41608.5417099246260477   16539.9049392222768802       0.1022451931725089
   41855.4482107772273594   16791.2756038964835170       0.1032755333113274
   42102.6730687976887566   17043.8692565535275207       0.1043132822432209
   42350.2142711912310915   17297.6838406882707204       0.1053584673871973
   42598.0698025874517043   17552.7172898552526021       0.1064111161017220
   42846.2376450568699511   17808.9675276855814445       0.1074712556844957
   43094.7157781273344881   18066.4324679037999886       0.1085389133722309
   43343.5021788003723486   18325.1100143448820745       0.1096141163404320
   43592.5948215677417465   18584.9980609712547448       0.1106968917031722
   43841.9916784279921558   18846.0944918901332130       0.1117872665128742
   44091.6907189028497669   19108.3971813704774831       0.1128852677600897
   44341.6899100537775666   19371.9039938604328199       0.1139909223732781
   44591.9872164985572454   19636.6127840047447535       0.1151042572185901
   44842.5806004278492765   19902.5213966622359294       0.1162252990996461
   45093.4680216217675479   20169.6276669231738197       0.1173540747573201
   45344.6474374665631331   20437.9294201272059581       0.1184906108695199
   45596.1168029711479903   20707.4244718807494792       0.1196349340509729
   45847.8740707837860100   20978.1106280749590951       0.1207870708530063
   46099.9171912087767851   21249.9856849035786581       0.1219470477633324
   46352.2441122231684858   21523.0474288807963603       0.1231148912058337
   46604.8527794933979749   21797.2936368593582301       0.1242906275403459
   46857.7411363920618896   22072.7220760486561630       0.1254742830624448
   47110.9071240146295168   22349.3305040328086761       0.1266658840032318
   47364.3486811962284264   22627.1166687890581670       0.1278654565291196
   47618.0637445284592104   22906.0783087060153775       0.1290730267416204
   47872.0502483761010808   23186.2131526020202728       0.1302886206771328
   48126.3061248940430232   23467.5189197438885458       0.1315122643067295
   48380.8293040440112236   23749.9933198650942359       0.1327439835359463
   48635.6177136115074973   24033.6340531847745297       0.1339838042045709
