                   X [km]                   Y [km]                 T [dias]
    -746.1715383215819202    -964.4673654797667268       0.0000000000000000
    -738.0830340908642029    -970.6956261836493240       0.0001033973162493
    -729.9660218667003164    -976.8869308765158621       0.0002067979215017
    -721.8205541353764829    -983.0412395241044123       0.0003102051047391
    -713.6466835671772060    -989.1585123313765280       0.0004136221549008
    -705.4444630160467113    -995.2387097427787239       0.0005170523608624
    -697.2139455192449304   -1001.2817924424915645       0.0006204990114142
    -688.9551842970073494   -1007.2877213546877329       0.0007239653952405
    -680.6682327521975822   -1013.2564576437847563       0.0008274548008977
    -672.3531444699638087   -1019.1879627146939811       0.0009309705167935
    -664.0099732173937355   -1025.0821982130732977       0.0010345158311654
    -655.6387729431646676   -1030.9391260255722500       0.0011380940320596
    -647.2395977771946036   -1036.7587082800810094       0.0012417084073096
    -638.8125020302926487   -1042.5409073459704814       0.0013453622445148
    -630.3575401938109053   -1048.2856858343427575       0.0014490588310199
    -621.8747669392860189   -1053.9930065982675842       0.0015528014538926
    -613.3642371180912960   -1059.6628327330247430       0.0016565933999034
    -604.8260057610793865   -1065.2951275763409740       0.0017604379555036
    -596.2601280782256481   -1070.8898547086287181       0.0018643384068044
    -587.6666594582733296   -1076.4469779532200846       0.0019682980395555
    -579.0456554683745480   -1081.9664613766055936       0.0020723201391241
    -570.3971718537309243   -1087.4482692886574569       0.0021764079904732
    -561.7212645372310362   -1092.8923662428680927       0.0022805648781408
    -553.0179896190942372   -1098.2987170365775000       0.0023847940862186
    -544.2874033765018567   -1103.6672867111981304       0.0024890988983304
    -535.5295622632368122   -1108.9980405524454454       0.0025934825976114
    -526.7445229093171974   -1114.2909440905577867       0.0026979484666865
    -517.9323421206314606   -1119.5459631005221581       0.0028024997876493
    -509.0930768785689224   -1124.7630636022943236       0.0029071398420410
    -500.2267843396538183   -1129.9422118610211783       0.0030118719108289
    -491.3335218351743947   -1135.0833743872542527       0.0031166992743853
    -482.4133468708115515   -1140.1865179371693557       0.0032216252124663
    -473.4663171262683932   -1145.2516095127821245       0.0033266530041907
    -464.4924904548957443   -1150.2786163621572086       0.0034317859280187
    -455.4919248833199958   -1155.2675059796256392       0.0035370272617305
    -446.4646786110661196   -1160.2182461059928755       0.0036423802824055
    -437.4108100101826153   -1165.1308047287448062       0.0037478482664008
    -428.3303776248626491   -1170.0051500822564776       0.0038534344893303
    -419.2234401710671250   -1174.8412506480015054       0.0039591422260430
    -410.0900565361434360   -1179.6390751547471609       0.0040649747506025
    -400.9302857784466028   -1184.3985925787667384       0.0041709353362653
    -391.7441871269549551   -1189.1197721440310033       0.0042770272554599
    -382.5318199808896225   -1193.8025833224141934       0.0043832537797656
    -373.2932439093282824   -1198.4469958338856941       0.0044896181798913
    -364.0285186508216384   -1203.0529796467110373       0.0045961237256542
    -354.7377041130063162   -1207.6205049776435771       0.0047027736859592
    -345.4208603722177600   -1212.1495422921161662       0.0048095713287770
    -336.0780476731004569   -1216.6400623044321492       0.0049165199211236
    -326.7093264282215159   -1221.0920359779581759       0.0050236227290387
    -317.3147572176771405   -1225.5054345253083738       0.0051308830175651
    -307.8944007887012049   -1229.8802294085312496       0.0052383040507271
    -298.4483180552740578   -1234.2163923392959077       0.0053458890915095
    -288.9765700977276879   -1238.5138952790725853       0.0054536414018370
    -279.4792181623496390   -1242.7727104393134141       0.0055615642425522
    -269.9563236609890282   -1246.9928102816377304       0.0056696608733954
    -260.4079481706586989   -1251.1741675180032871       0.0057779345529829
    -250.8341534331365779   -1255.3167551108867883       0.0058863885387863
    -241.2350013545660374   -1259.4205462734569210       0.0059950260871111
    -231.6105540050570823   -1263.4855144697464766       0.0061038504530762
    -221.9608736182843245   -1267.5116334148299302       0.0062128648905923
    -212.2860225910834231   -1271.4988770749846481       0.0063220726523408
    -202.5860634830494860   -1275.4472196678657383       0.0064314769897536
    -192.8610590161317759   -1279.3566356626720335       0.0065410811529910
    -183.1110720742280193   -1283.2270997803066166       0.0066508883909214
    -173.3361657027767251   -1287.0585869935455321       0.0067609019511000
    -163.5364031083515499   -1290.8510725271971751       0.0068711250797480
    -153.7118476582522533   -1294.6045318582634991       0.0069815610217314
    -143.8625628800924972   -1298.3189407160966766       0.0070922130205400
    -133.9886124613932452   -1301.9942750825582607       0.0072030843182668
    -124.0900602491664841   -1305.6305111921735715       0.0073141781555866
    -114.1669702495056811   -1309.2276255322840370       0.0074254977717351
    -104.2194066271702866   -1312.7855948432038531       0.0075370464044882
     -94.2474337051718578   -1316.3043961183630017       0.0076488272901411
     -84.2511159643568561   -1319.7840066044625473       0.0077608436634869
     -74.2305180429906244   -1323.2244038016192462       0.0078730987577961
     -64.1857047363394457   -1326.6255654635117480       0.0079855958047956
     -54.1167409962507904   -1329.9874695975199757       0.0080983380346478
     -44.0236919307346994   -1333.3100944648770110       0.0082113286759297
     -33.9066228035411115   -1336.5934185807986978       0.0083245709556120
     -23.7655990337383685   -1339.8374207146302979       0.0084380680990382
     -13.6006861952919813   -1343.0420798899806414       0.0085518233299039
      -3.4119500166376038   -1346.2073753848590059       0.0086658398702357
       6.8005436197413838   -1349.3332867318072203       0.0087801209403708
      17.0367286777416886   -1352.4197937180331337       0.0088946697589356
      27.2965389680654269   -1355.4668763855438556       0.0090094895428253
      37.5799081486508939   -1358.4745150312685382       0.0091245835071829
      47.8867697250972526   -1361.4426902071916174       0.0092399548653788
      58.2170570510988341   -1364.3713827204762765       0.0093556068289893
      68.5707033288734209   -1367.2605736335908659       0.0094715426077765
      78.9476416095957774   -1370.1102442644241819       0.0095877654096672
      89.3478047938282600   -1372.9203761864164335       0.0097042784407322
      99.7711256319569770   -1375.6909512286699737       0.0098210849051659
     110.2175367246262425   -1378.4219514760732181       0.0099381880052650
     120.6869705231739118   -1381.1133592694100116       0.0100555909414081
     131.1793593300671716   -1383.7651572054799090       0.0101732969120351
     141.6946352993426217   -1386.3773281372061774       0.0102913091136265
     152.2327304370436707   -1388.9498551737513026       0.0104096307406825
     162.7935766016592822   -1391.4827216806197612       0.0105282649857024
     173.3771055045658045   -1393.9759112797705711       0.0106472150391644
     183.9832487104692689   -1396.4294078497246119       0.0107664840895043
     194.6119376378459549   -1398.8431955256605761       0.0108860753230954
     205.2631035593869058   -1401.2172586995295660       0.0110059919242274
     215.9366776024424723   -1403.5515820201439965       0.0111262370750864
     226.6325907494677949   -1405.8461503932862797       0.0112468139557339
     237.3507738384683705   -1408.1009489817993199       0.0113677257440865
     248.0911575634478652   -1410.3159632056892860       0.0114889756158950
     258.8536724748548750   -1412.4911787422131511       0.0116105667447243
     269.6382489800343478   -1414.6265815259762348       0.0117325023019325
     280.4448173436771299   -1416.7221577490213349       0.0118547854566506
     291.2733076882676073   -1418.7778938609174020       0.0119774193757620
     302.1236499945411538   -1420.7937765688479885       0.0121004072238820
     312.9957741019305217   -1422.7697928376958316       0.0122237521633372
     323.8896097090261037   -1424.7059298901313014       0.0123474573541453
     334.8050863740251089   -1426.6021752066894805       0.0124715259539945
     345.7421335151889821   -1428.4585165258552024       0.0125959611182231
     356.7006804113022440   -1430.2749418441399030       0.0127207659997992
     367.6806562021250215   -1432.0514394161602922       0.0128459437493000
     378.6819898888552416   -1433.7879977547142971       0.0129714975148920
     389.7046103345854817   -1435.4846056308551852       0.0130974304423101
     400.7484462647647092   -1437.1412520739647789       0.0132237456748374
     411.8134262676565527   -1438.7579263718218954       0.0133504463532851
     422.8994787948041107   -1440.3346180706776067       0.0134775356159719
     434.0065321614906679   -1441.8713169753134480       0.0136050165987039
     445.1345145472037643   -1443.3680131491166776       0.0137328924347543
     456.2833539960998337   -1444.8246969141389400       0.0138611662548430
     467.4529784174674205   -1446.2413588511601574       0.0139898411871164
     478.6433155861982982   -1447.6179897997510579       0.0141189203571275
     489.8542931432487535   -1448.9545808583302460       0.0142484068878150
     501.0858385961116710   -1450.2511233842219553       0.0143783038994840
     512.3378793192817966   -1451.5076089937128927       0.0145086145097849
     523.6103425547294137   -1452.7240295621068071       0.0146393418336939
     534.9031554123665728   -1453.9003772237756493       0.0147704889834928
     546.2162448705211091   -1455.0366443722107306       0.0149020590687484
     557.5495377764098066   -1456.1328236600738819       0.0150340551962928
     568.9029608466069021   -1457.1889079992413372       0.0151664804702035
     580.2764406675238433   -1458.2048905608539826       0.0152993379917826
     591.6699036958776787   -1459.1807647753562378       0.0154326308595375
     603.0832762591716119   -1460.1165243325419851       0.0155663621691605
     614.5164845561716902   -1461.0121631815993624       0.0157005350135088
     625.9694546573776961   -1461.8676755311375928       0.0158351524825847
     637.4421125055087032   -1462.6830558492388263       0.0159702176635152
     648.9343839159780600   -1463.4582988634833782       0.0161057336405324
     660.4461945773724665   -1464.1933995609895192       0.0162417034949537
     671.9774700519352564   -1464.8883531884441709       0.0163781303051612
     683.5281357760462697   -1465.5431552521308731       0.0165150171465827
     695.0981170607026343   -1466.1578015179661634       0.0166523670916710
     706.6873390920042084   -1466.7322880115184489       0.0167901832098844
     718.2957269316358406   -1467.2666110180391570       0.0169284685676670
     729.9232055173523577   -1467.7607670824843353       0.0170672262284286
     741.5696996634633251   -1468.2147530095382990       0.0172064592525249
     753.2351340613199682   -1468.6285658636331846       0.0173461706972381
     764.9194332798034566   -1469.0022029689710052       0.0174863636167565
     776.6225217658089832   -1469.3356619095361566       0.0176270410621553
     788.3443238447367776   -1469.6289405291129242       0.0177682060813764
     800.0847637209823233   -1469.8820369313013998       0.0179098617192093
     811.8437654784243023   -1470.0949494795281680       0.0180520110172709
     823.6212530809161763   -1470.2676767970556284       0.0181946570139858
     835.4171503727785648   -1470.4002177669938192       0.0183378027445671
     847.2313810792919639   -1470.4925715323042823       0.0184814512409965
     859.0638688071877596   -1470.5447374958096134       0.0186256055320046
     870.9145370451445842   -1470.5567153201941437       0.0187702686430514
     882.7833091642813770   -1470.5285049280055318       0.0189154435963068
     894.6701084186548769   -1470.4601065016586290       0.0190611334106312
     906.5748579457527967   -1470.3515204834309316       0.0192073411015556
     918.4974807669946131   -1470.2027475754641728       0.0193540696812624
     930.4378997882255362   -1470.0137887397534087       0.0195013221585657
     942.3960378002182097   -1469.7846451981451992       0.0196491015388920
     954.3718174791708861   -1469.5153184323305595       0.0197974108242610
     966.3651613872051485   -1469.2058101838317725       0.0199462530132655
     978.3759919728715886   -1468.8561224539937484       0.0200956311010528
     990.4042315716442317   -1468.4662575039685635       0.0202455480793047
    1002.4498024064311039   -1468.0362178547052281       0.0203960069362187
    1014.5126265880705887   -1467.5660062869296780       0.0205470106564880
    1026.5926261158367652   -1467.0556258411263570       0.0206985622212830
    1038.6897228779471334   -1466.5050798175220734       0.0208506646082315
    1050.8038386520615859   -1465.9143717760609889       0.0210033207913993
    1062.9348951057932027   -1465.2835055363850643       0.0211565337412718
    1075.0828137972130207   -1464.6124851778038192       0.0213103064247336
    1087.2475161753579869   -1463.9013150392772786       0.0214646418050504
    1099.4289235807368641   -1463.1499997193768650       0.0216195428418492
    1111.6269572458415951   -1462.3585440762644794       0.0217750124910995
    1123.8415382956534359   -1461.5269532276565769       0.0219310537050937
    1136.0725877481570478   -1460.6552325507921068       0.0220876694324286
    1148.3200265148477683   -1459.7433876823968149       0.0222448626179862
    1160.5837754012450205   -1458.7914245186514108       0.0224026362029142
    1172.8637551074009480   -1457.7993492151447299       0.0225609931246076
    1185.1598862284201914   -1456.7671681868430369       0.0227199363166893
    1197.4720892549653399   -1455.6948881080422780       0.0228794687089911
    1209.8002845737767075   -1454.5825159123291996       0.0230395932275353
    1222.1443924681836961   -1453.4300587925315540       0.0232003127945151
    1234.5043331186229807   -1452.2375242006773988       0.0233616303282759
    1246.8800266031532828   -1451.0049198479439383       0.0235235487432969
    1259.2713928979710545   -1449.7322537046050002       0.0236860709501715
    1271.6783518779291171   -1448.4195339999839689       0.0238491998555891
    1284.1008233170575750   -1447.0667692224005805       0.0240129383623159
    1296.5387268890758605   -1445.6739681191111231       0.0241772893691765
    1308.9919821679181950   -1444.2411396962572780       0.0243422557710346
    1321.4605086282522279   -1442.7682932188051836       0.0245078404587750
    1333.9442256459963119   -1441.2554382104858632       0.0246740463192844
    1346.4430524988454181   -1439.7025844537331523       0.0248408762354327
    1358.9569083667909126   -1438.1097419896223073       0.0250083330860548
    1371.4857123326439705   -1436.4769211178029309       0.0251764197459315
    1384.0293833825562615   -1434.8041323964350795       0.0253451390857713
    1396.5878404065488212   -1433.0913866421158218       0.0255144939721914
    1409.1610021990306905   -1431.3386949298155741       0.0256844872676998
    1421.7487874593282413   -1429.5460685928035218       0.0258551218306760
    1434.3511147922092732   -1427.7135192225719038       0.0260264005153533
    1446.9679027084091558   -1425.8410586687668911       0.0261983261717997
    1459.5990696251590180   -1423.9286990391071868       0.0263709016458999
    1472.2445338667109809   -1421.9764526993055824       0.0265441297793366
    1484.9042136648690757   -1419.9843322729930151       0.0267180134095726
    1497.5780271595162958   -1417.9523506416342116       0.0268925553698317
    1510.2658923991436950   -1415.8805209444431057       0.0270677584890810
    1522.9677273413808507   -1413.7688565783009835       0.0272436255920125
    1535.6834498535260991   -1411.6173711976682625       0.0274201594990246
    1548.4129777130799539   -1409.4260787144958158       0.0275973630262040
    1561.1562286082717037   -1407.1949932981356142       0.0277752389853076
    1573.9131201385951044   -1404.9241293752479578       0.0279537901837441
    1586.6835698153445264   -1402.6135016297125730       0.0281330194245562
    1599.4674950621390508   -1400.2631250025272038       0.0283129295064019
    1612.2648132154670293   -1397.8730146917141610       0.0284935232235369
    1625.0754415252097260   -1395.4431861522230065       0.0286748033657964
    1637.8992971551883784   -1392.9736550958298267       0.0288567727185771
    1650.7362971836896577   -1390.4644374910351416       0.0290394340628189
    1663.5863586040056816   -1387.9155495629595407       0.0292227901749874
    1676.4493983249740268   -1385.3270077932438653       0.0294068438270555
    1689.3253331715093282   -1382.6988289199348401       0.0295915977864856
    1702.2140798851430645   -1380.0310299373823000       0.0297770548162121
    1715.1155551245662991   -1377.3236280961295961       0.0299632176746228
    1728.0296754661592331   -1374.5766409027969530       0.0301500891155418
    1740.9563574045412224   -1371.7900861199757401       0.0303376718882111
    1753.8955173531035143   -1368.9639817661063717       0.0305259687372732
    1766.8470716445522157   -1366.0983461153668941       0.0307149824027533
    1779.8109365314476236   -1363.1931976975515681       0.0309047156200415
    1792.7870281867496942   -1360.2485552979542263       0.0310951711198749
    1805.7752627043569191   -1357.2644379572416256       0.0312863516283204
    1818.7755560996483837   -1354.2408649713390787       0.0314782598667568
    1831.7878243100276450   -1351.1778558912935750       0.0316708985518573
    1844.8119831954688834   -1348.0754305231600938       0.0318642703955717
    1857.8479485390573700   -1344.9336089278642703       0.0320583781051092
    1870.8956360475347083   -1341.7524114210766584       0.0322532243829207
    1883.9549613518463502   -1338.5318585730797167       0.0324488119266814
    1897.0258400076820635   -1335.2719712086391155       0.0326451434292732
    1910.1081874960298137   -1331.9727704068609455       0.0328422215787676
    1923.2019192237139578   -1328.6342775010625701       0.0330400490584080
    1936.3069505239484442   -1325.2565140786334723       0.0332386285465923
    1949.4231966568784173   -1321.8395019808920097       0.0334379627168562
    1962.5505728101361456   -1318.3832633029473982       0.0336380542378550
    1975.6889940993817163   -1314.8878203935564670       0.0338389057733472
    1988.8383755688569181   -1311.3531958549795036       0.0340405199821767
    2001.9986321919309376   -1307.7794125428310963       0.0342428995182557
    2015.1696788716528772   -1304.1664935659368894       0.0344460470305478
    2028.3514304413008631   -1300.5144622861812422       0.0346499651630507
    2041.5438016649341080   -1296.8233423183544346       0.0348546565547790
    2054.7467072379417914   -1293.0931575300071472       0.0350601238397474
    2067.9600617875944408   -1289.3239320412858433       0.0352663696469534
    2081.1837798736014520   -1285.5156902247872495       0.0354733966003603
    2094.4177759886556487   -1281.6684567053914634       0.0356812073188807
