                   X [km]                   Y [km]                 T [dias]
    -771.4451209102983285   -1014.5824521245459664       0.0000000000000000
    -763.1660077919588048   -1020.8484209313528481       0.0001077002993057
    -754.8588920637498632   -1027.0774521957737306       0.0002154038290514
    -746.5238266618572425   -1033.2695062239911294       0.0003231138196564
    -738.1608647005701869   -1039.4245435578166052       0.0004308335014989
    -729.7700594719483433   -1045.5425249749507657       0.0005385661048955
    -721.3514644454784275   -1051.6234114892267826       0.0006463148600802
    -712.9051332677346409   -1057.6671643508620946       0.0007540829971842
    -704.4311197620381790   -1063.6737450467041981       0.0008618737462152
    -695.9294779281103729   -1069.6431153004748467       0.0009696903370368
    -687.4002619417317419   -1075.5752370730160692       0.0010775359993479
    -678.8435261543976367   -1081.4700725625320956       0.0011854139626621
    -670.2593250929693340   -1087.3275842048312825       0.0012933274562872
    -661.6477134593270648   -1093.1477346735598530       0.0014012797093048
    -653.0087461300223595   -1098.9304868804488251       0.0015092739505491
    -644.3424781559284611   -1104.6758039755413847       0.0016173134085871
    -635.6489647618874415   -1110.3836493474359486       0.0017254013116974
    -626.9282613463616372   -1116.0539866235119462       0.0018335408878501
    -618.1804234810782646   -1121.6867796701667430       0.0019417353646859
    -609.4055069106756264   -1127.2819925930443787       0.0020499879694957
    -600.6035675523463624   -1132.8395897372620311       0.0021583019291998
    -591.7746614954868392   -1138.3595356876430742       0.0022666804703279
    -582.9188450013318743   -1143.8417952689351296       0.0023751268189978
    -574.0361745026025346   -1149.2863335460399412       0.0024836442008954
    -565.1267066031432478   -1154.6931158242346100       0.0025922358412540
    -556.1904980775620970   -1160.0621076493910095       0.0027009049648334
    -547.2276058708681603   -1165.3932748081972477       0.0028096547958999
    -538.2380870981099861   -1170.6865833283741267       0.0029184885582055
    -529.2219990440119091   -1175.9419994788938766       0.0030274094749673
    -520.1793991626062734   -1181.1594897701922946       0.0031364207688469
    -511.1103450768700327   -1186.3390209543847504       0.0032455256619303
    -502.0148945783571435   -1191.4805600254758247       0.0033547273757066
    -492.8931056268288557   -1196.5840742195716757       0.0034640291310484
    -483.7450363498858223   -1201.6495310150864952       0.0035734341481904
    -474.5707450425971956   -1206.6768981329528287       0.0036829456467095
    -465.3702901671292125   -1211.6661435368239381       0.0037925668455040
    -456.1437303523720743   -1216.6172354332804844       0.0039023009627731
    -446.8911243935680204   -1221.5301422720322080       0.0040121512159966
    -437.6125312519339445   -1226.4048327461175631       0.0041221208219140
    -428.3080100542879336   -1231.2412757921063076       0.0042322129965044
    -418.9776200926722822   -1236.0394405902952712       0.0043424309549658
    -409.6214208239747450   -1240.7992965649045800       0.0044527779116947
    -400.2394718695493907   -1245.5208133842743337       0.0045632570802655
    -390.8318330148381960   -1250.2039609610540083       0.0046738716734101
    -381.3985642089892849   -1254.8487094524014083       0.0047846249029975
    -371.9397255644738038   -1259.4550292601636556       0.0048955199800132
    -362.4553773567051280   -1264.0228910310729589       0.0050065601145387
    -352.9455800236531218   -1268.5522656569321498       0.0051177485157313
    -343.4103941654587970   -1273.0431242747956730       0.0052290883918035
    -333.8498805440491992   -1277.4954382671603526       0.0053405829500024
    -324.2641000827506446   -1281.9091792621427430       0.0054522353965894
    -314.6531138658979216   -1286.2843191336619384       0.0055640489368199
    -305.0169831384480972   -1290.6208300016191970       0.0056760267749226
    -295.3557693055879554   -1294.9186842320725646       0.0057881721140795
    -285.6695339323445637   -1299.1778544374183184       0.0059004881564050
    -275.9583387431908932   -1303.3983134765603609       0.0060129781029256
    -266.2222456216547357   -1307.5800344550855243       0.0061256451535598
    -256.4613166099222781   -1311.7229907254361478       0.0062384925070977
    -246.6756139084448023   -1315.8271558870774243       0.0063515233611799
    -236.8651998755397869   -1319.8925037866656567       0.0064647409122783
    -227.0301370269958170   -1323.9190085182158327       0.0065781483556746
    -217.1704880356738272   -1327.9066444232705635       0.0066917488854406
    -207.2863157311062423   -1331.8553860910549247       0.0068055456944179
    -197.3776830990979931   -1335.7652083586449407       0.0069195419741968
    -187.4446532813249462   -1339.6360863111297022       0.0070337409150971
    -177.4872895749311965   -1343.4679952817584763       0.0071481457061468
    -167.5056554321255362   -1347.2609108521166945       0.0072627595350622
    -157.4998144597784915   -1351.0148088522614671       0.0073775855882276
    -147.4698304190152953   -1354.7296653608912038       0.0074926270506748
    -137.4157672248099971   -1358.4054567054895415       0.0076078871060631
    -127.3376889455781225   -1362.0421594624779118       0.0077233689366587
    -117.2356598027701438   -1365.6397504573669721       0.0078390757233146
    -107.1097441704590381   -1369.1982067649028068       0.0079550106454504
     -96.9600065749335727   -1372.7175057092124462       0.0080711768810317
     -86.7865116942836323   -1376.1976248639480218       0.0081875776065503
     -76.5893243579911172   -1379.6385420524331948       0.0083042159970036
     -66.3685095465150567   -1383.0402353477988981       0.0084210952258746
     -56.1241323908772287   -1386.4026830731263544       0.0085382184651115
     -45.8562581722491913   -1389.7258638015889574       0.0086555888851077
     -35.5649523215340722   -1393.0097563565784640       0.0087732096546813
     -25.2502804189508545   -1396.2543398118521054       0.0088910839410553
     -14.9123081936162176   -1399.4595934916555962       0.0090092149098368
      -4.5511015231250509   -1402.6254969708613771       0.0091276057249976
       5.8332735668677627   -1405.7520300750959450       0.0092462595488536
      16.2407509030706514   -1408.8391728808710468       0.0093651795420445
      26.6712641649746693   -1411.8869057157062343       0.0094843688635141
      37.1247468852758686   -1414.8952091582582398       0.0096038306704898
      47.6011324503023801   -1417.8640640384433027       0.0097235681184626
      58.1003541004341741   -1420.7934514375590425       0.0098435843611671
      68.6223449305318383   -1423.6833526884049661       0.0099638825505613
      79.1670378903619536   -1426.5337493754013849       0.0100844658368064
      89.7343657850241527   -1429.3446233347087855       0.0102053373682470
     100.3242612753788165   -1432.1159566543412893       0.0103265002913909
     110.9366568784777485   -1434.8477316742794301       0.0104479577508888
     121.5714849679928165   -1437.5399309865877058       0.0105697128895148
     132.2286777746467692   -1440.1925374355193981       0.0106917688481460
     142.9081673866463689   -1442.8055341176311686       0.0108141287657423
     153.6098857501146426   -1445.3789043818887876       0.0109367957793270
     164.3337646695240721   -1447.9126318297719536       0.0110597730239663
     175.0797358081304651   -1450.4067003153788846       0.0111830636327495
     185.8477306884104792   -1452.8610939455327298       0.0113066707367690
     196.6376806924967582   -1455.2757970798786573       0.0114305974651005
     207.4495170626156266   -1457.6507943309859456       0.0115548469447827
     218.2831709015237323   -1459.9860705644439349       0.0116794223007977
     229.1385731729494353   -1462.2816108989613895       0.0118043266560512
     240.0156547020308722   -1464.5374007064588113       0.0119295631313520
     250.9143461757580837   -1466.7534256121628005       0.0120551348453929
     261.8345781434139212   -1468.9296714946972315       0.0121810449147300
     272.7762810170168564   -1471.0661244861746582       0.0123072964537638
     283.7393850717637065   -1473.1627709722813506       0.0124338925747182
     294.7238204464756564   -1475.2195975923677906       0.0125608363876219
     305.7295171440417221   -1477.2365912395323448       0.0126881310002875
     316.7564050318654267   -1479.2137390607028919       0.0128157795182924
     327.8044138423118739   -1481.1510284567214057       0.0129437850449588
     338.8734731731557872   -1483.0484470824244454       0.0130721506813337
     349.9635124880289254   -1484.9059828467193256       0.0132008795261696
     361.0744611168722713   -1486.7236239126639248       0.0133299746759043
     372.2062482563812864   -1488.5013586975373983       0.0134594392246414
     383.3588029704637279   -1490.2391758729215780       0.0135892762641306
     394.5320541906854146   -1491.9370643647669112       0.0137194888837480
     405.7259307167277598   -1493.5950133534634006       0.0138500801704761
     416.9403612168393920   -1495.2130122739140461       0.0139810532088847
     428.1752742282906752   -1496.7910508155985099       0.0141124110811107
     439.4305981578290243   -1498.3291189226385995       0.0142441568668388
     450.7062612821363814   -1499.8272067938623877       0.0143762936432818
     462.0021917482847584   -1501.2853048828706051       0.0145088244851608
     473.3183175741950777   -1502.7034038980930291       0.0146417524646859
     484.6545666490956705   -1504.0814948028485105       0.0147750806515365
     496.0108667339813451   -1505.4195688154045456       0.0149088121128416
     507.3871454620737609   -1506.7176174090295717       0.0150429499131603
     518.7833303392834523   -1507.9756323120527668       0.0151774971144627
     530.1993487446707150   -1509.1936055079102061       0.0153124567761098
     541.6351279309095617   -1510.3715292352032975       0.0154478319548342
     553.0905950247512237   -1511.5093959877415273       0.0155836257047207
     564.5656770274847531   -1512.6071985145915733       0.0157198410771869
     576.0603008154084819   -1513.6649298201305101       0.0158564811209636
     587.5743931402915905   -1514.6825831640785509       0.0159935488820754
     599.1078806298426116   -1515.6601520615531626       0.0161310474038212
     610.6606897881762279   -1516.5976302831027169       0.0162689797267553
     622.2327469962818896   -1517.4950118547510556       0.0164073488886672
     633.8239785124923173   -1518.3522910580306871       0.0165461579245630
     645.4343104729560991   -1519.1694624300253054       0.0166854098666456
     657.0636688921039195   -1519.9465207633993487       0.0168251077442957
     668.7119796631239979   -1520.6834611064336968       0.0169652545840521
     680.3791685584324114   -1521.3802787630568218       0.0171058534095927
     692.0651612301454634   -1522.0369692928743461       0.0172469072417153
     703.7698832105560314   -1522.6535285111983740       0.0173884190983182
     715.4932599126061632   -1523.2299524890718203       0.0175303919943807
     727.2352166303617196   -1523.7662375532979695       0.0176728289419446
     738.9956785394905410   -1524.2623802864570735       0.0178157329500943
     750.7745706977367490   -1524.7183775269345460       0.0179591070249380
     762.5718180454020967   -1525.1342263689384708       0.0181029541695884
     774.3873454058192465   -1525.5099241625166542       0.0182472773841438
     786.2210774858351670   -1525.8454685135766340       0.0183920796656684
     798.0729388762899816   -1526.1408572838986402       0.0185373640081741
     809.9428540524936579   -1526.3960885911501464       0.0186831334026006
     821.8307473747139511   -1526.6111608088988305       0.0188293908367966
     833.7365430886522972   -1526.7860725666180315       0.0189761392955011
     845.6601653259301656   -1526.9208227497042571       0.0191233817603239
     857.6015381045721142   -1527.0154104994753652       0.0192711212097268
     869.5605853294875942   -1527.0698352131817046       0.0194193606190048
     881.5372307929590079   -1527.0840965440072523       0.0195681029602667
     893.5313981751255596   -1527.0581944010739335       0.0197173512024166
     905.5430110444689262   -1526.9921289494386656       0.0198671083111347
     917.5719928583039291   -1526.8859006100992701       0.0200173772488586
     929.6182669632602256   -1526.7395100599819671       0.0201681609747644
     941.6817565957763918   -1526.5529582319443307       0.0203194624447475
     953.7623848825878667   -1526.3262463147689232       0.0204712846114042
     965.8600748412143275   -1526.0593757531521533       0.0206236304240127
     977.9747493804502483   -1525.7523482476958634       0.0207765028285144
     990.1063313008609157   -1525.4051657549016454       0.0209299047674949
    1002.2547432952703730   -1525.0178304871503769       0.0210838391801655
    1014.4199079492523197   -1524.5903449126940359       0.0212383090023444
    1026.6017477416303336   -1524.1227117556370558       0.0213933171664378
    1038.8001850449634276   -1523.6149339959210920       0.0215488666014215
    1051.0151421260477491   -1523.0670148693043302       0.0217049602328222
    1063.2465411464067984   -1522.4789578673403412       0.0218616009826986
    1075.4943041627900584   -1521.8507667373594359       0.0220187917696229
    1087.7583531276716258   -1521.1824454824406985       0.0221765355086626
    1100.0386098897413376   -1520.4739983613867480       0.0223348351113610
    1112.3349961944097686   -1519.7254298886991819       0.0224936934857199
    1124.6474336843018591   -1518.9367448345506091       0.0226531135361798
    1136.9758438997596386   -1518.1079482247489523       0.0228130981636023
    1149.3201482793383548   -1517.2390453407087989       0.0229736502652512
    1161.6802681603121528   -1516.3300417194197962       0.0231347727347741
    1174.0561247791715687   -1515.3809431534084524       0.0232964684621842
    1186.4476392721251159   -1514.3917556906992559       0.0234587403338413
    1198.8547326756054190   -1513.3624856347826153       0.0236215912324342
    1211.2773259267692083   -1512.2931395445687031       0.0237850240369616
    1223.7153398640027717   -1511.1837242343492562       0.0239490416227142
    1236.1686952274228588   -1510.0342467737496008       0.0241136468612563
    1248.6373126593891811   -1508.8447144876911352       0.0242788426204073
    1261.1211127050025880   -1507.6151349563365329       0.0244446317642236
    1273.6200158126155202   -1506.3455160150472238       0.0246110171529805
    1286.1339423343367798   -1505.0358657543310983       0.0247780016431536
    1298.6628125265415292   -1503.6861925197899836       0.0249455880874008
    1311.2065465503765154   -1502.2965049120693948       0.0251137793345443
    1323.7650644722718880   -1500.8668117868019181       0.0252825782295520
    1336.3382862644475608   -1499.3971222545496857       0.0254519876135198
    1348.9261318054252570   -1497.8874456807468505       0.0256220103236533
    1361.5285208805396451   -1496.3377916856450156       0.0257926491932498
    1374.1453731824465194   -1494.7481701442416124       0.0259639070516800
    1386.7766083116357549   -1493.1185911862271496       0.0261357867243704
    1399.4221457769481276   -1491.4490651959147272       0.0263082910327849
    1412.0819049960803113   -1489.7396028121752352       0.0264814227944069
    1424.7558052961032899   -1487.9902149283718700       0.0266551848227217
    1437.4437659139773587   -1486.2009126922853284       0.0268295799271981
    1450.1457059970621231   -1484.3717075060492334       0.0270046109132707
    1462.8615446036387766   -1482.5026110260739642       0.0271802805823221
    1475.5912007034160069   -1480.5936351629698038       0.0273565917316648
    1488.3345931780577303   -1478.6447920814778172       0.0275335471545237
    1501.0916408216899072   -1476.6560942003868604       0.0277111496400181
    1513.8622623414246391   -1474.6275541924567278       0.0278894019731439
    1526.6463763578763064   -1472.5591849843347063       0.0280683069347561
    1539.4439014056788437   -1470.4509997564782680       0.0282478673015505
    1552.2547559340061980   -1468.3030119430663945       0.0284280858460469
    1565.0788583070914228   -1466.1152352319165857       0.0286089653365706
    1577.9161268047455451   -1463.8876835643955019       0.0287905085372352
    1590.7664796228848445   -1461.6203711353327890       0.0289727182079248
    1603.6298348740426718   -1459.3133123929271733       0.0291555971042767
    1616.5061105878974104   -1456.9665220386589226       0.0293391479776633
    1629.3952247117922525   -1454.5800150271925304       0.0295233735751753
    1642.2970951112606599   -1452.1538065662819008       0.0297082766396035
    1655.2116395705450032   -1449.6879121166741697       0.0298938599094217
    1668.1387757931286160   -1447.1823473920123888       0.0300801261187691
    1681.0784214022510241   -1444.6371283587327525       0.0302670779974332
    1694.0304939414381806   -1442.0522712359643265       0.0304547182708318
    1706.9949108750279265   -1439.4277924954267291       0.0306430496599962
    1719.9715895886922681   -1436.7637088613234937       0.0308320748815535
    1732.9604473899696586   -1434.0600373102333833       0.0310217966477097
    1745.9614015087872758   -1431.3167950710098921       0.0312122176662318
    1758.9743690979880739   -1428.5339996246616465       0.0314033406404310
    1771.9992672338621560   -1425.7116687042494050       0.0315951682691456
    1785.0360129166731440   -1422.8498202947660047       0.0317877032467232
    1798.0845230711895510   -1419.9484726330279045       0.0319809482630042
    1811.1447145472081957   -1417.0076442075549039       0.0321749060033042
    1824.2165041200905762   -1414.0273537584535006       0.0323695791483970
    1837.2998084912901504   -1411.0076202772993383       0.0325649703744977
    1850.3945442888821162   -1407.9484630070116964       0.0327610823532455
    1863.5006280680986492   -1404.8499014417350281       0.0329579177516865
    1876.6179763118580013   -1401.7119553267150422       0.0331554792322571
    1889.7465054312931443   -1398.5346446581675082       0.0333537694527667
    1902.8861317662926922   -1395.3179896831584301       0.0335527910663810
    1916.0367715860265889   -1392.0620108994671682       0.0337525467216047
    1929.1983410894843018   -1388.7667290554634292       0.0339530390622653
    1942.3707564060055120   -1385.4321651499687960       0.0341542707274956
    1955.5539335958176252   -1382.0583404321266698       0.0343562443517171
    1968.7477886505685092   -1378.6452764012660737       0.0345589625646235
    1981.9522374938624125   -1375.1929948067622718       0.0347624279911634
    1995.1671959817945208   -1371.7015176479019374       0.0349666432515239
    2008.3925799034918782   -1368.1708671737408167       0.0351716109611141
    2021.6283049816440780   -1364.6010658829629847       0.0353773337305481
    2034.8742868730425926   -1360.9921365237339614       0.0355838141656282
    2048.1304411691194218   -1357.3441020935629240       0.0357910548673290
    2061.3966833964841499   -1353.6569858391483194       0.0359990584317800
    2074.6729290174621383   -1349.9308112562346196       0.0362078274502497
    2087.9590934306315830   -1346.1656020894611174       0.0364173645091287
    2101.2550919713676194   -1342.3613823322109511       0.0366276721899134
