                   X [km]                   Y [km]                 T [dias]
   -2722.1722922710541752   -6276.2192433861991958       0.0000000000000000
   -2587.0433343730878732   -6333.9532970225009194       0.0001589305121982
   -2451.2765041829484289   -6390.2136910828094187       0.0003178970429622
   -2314.8728995612927974   -6444.9999706248954681       0.0004769356105668
   -2177.8336235179231153   -6498.3116926266475275       0.0006360822327039
   -2040.1597842029477761   -6550.1484259898543314       0.0007953729261920
   -1901.8524948977808435   -6600.5097515435809328       0.0009548437066843
   -1762.9128740061439657   -6649.3952620475856747       0.0011145305883779
   -1623.3420450450212229   -6696.8045621955925526       0.0012744695837224
   -1483.1411366355919199   -6742.7372686185653947       0.0014346967031286
   -1342.3112824940749306   -6787.1930098876764532       0.0015952479546778
   -1200.8536214225839558   -6830.1714265174332468       0.0017561593438297
   -1058.7692972999052472   -6871.6721709684898087       0.0019174668731323
    -916.0594590722599833   -6911.6949076505497942       0.0020792065419298
    -772.7252607440053680   -6950.2393129250276615       0.0022414143460724
    -628.7678613683025333   -6987.3050751076261804       0.0024041262776245
    -484.1884250377440253   -7022.8918944709266725       0.0025673783245740
    -338.9881208749488337   -7056.9994832468173627       0.0027312064705413
    -193.1681230230969959   -7089.6275656287261882       0.0028956466944882
     -46.7296106364420396   -7120.7758777739854850       0.0030607349704270
     100.3262321292286572   -7150.4441678058765319       0.0032265072671297
     247.9982161261594342   -7178.6321958156277105       0.0033929995478368
     396.2851472242585373   -7205.3397338644645060       0.0035602477699671
     545.1858263207381015   -7230.5665659853784746       0.0037282878848263
     694.6990493498248043   -7254.3124881849398662       0.0038971558373168
     844.8236072924829614   -7276.5773084448510417       0.0040668875656465
     995.5582861861994388   -7297.3608467235735588       0.0042375190010388
    1146.9018671348007956   -7316.6629349577606263       0.0044090860674416
    1298.8531263183028841   -7334.4834170635949704       0.0045816246812368
    1451.4108350028170662   -7350.8221489381039646       0.0047551707509503
    1604.5737595504701858   -7365.6789984602673940       0.0049297601769610
    1758.3406614293994608   -7379.0538454921161247       0.0051054288512113
    1912.7102972237596532   -7390.9465818797298198       0.0052822126569159
    2067.6814186437695753   -7401.3571114540482085       0.0054601474682724
    2223.2527725358245334   -7410.2853500317014550       0.0056392691501710
    2379.4231008926030881   -7417.7312254156349809       0.0058196135579043
    2536.1911408632654457   -7423.6946773957724872       0.0060012165368775
    2693.5556247636659464   -7428.1756577494606972       0.0061841139223185
    2851.5152800865753306   -7431.1741302418267878       0.0063683415389883
    3010.0688295119784925   -7432.6900706260803418       0.0065539352008910
    3169.2149909174572713   -7432.7234666438234854       0.0067409307109845
    3328.9524773884741080   -7431.2743180249835859       0.0069293638608906
    3489.2799972288398749   -7428.3426364879187531       0.0071192704306061
    3650.1962539711171303   -7423.9284457392595868       0.0073106861882130
    3811.6999463871588887   -7418.0317814738145898       0.0075036468895896
    3973.7897684985473461   -7410.6526913741390672       0.0076981882781210
    4136.4644095872654361   -7401.7912351103204855       0.0078943460844105
    4299.7225542061787564   -7391.4474843393372794       0.0080921560259902
    4463.5628821897753369   -7379.6215227045959182       0.0082916538070328
    4627.9840686647312396   -7366.3134458351269132       0.0084928751180621
    4792.9847840607762919   -7351.5233613450172925       0.0086958556356651
    4958.5636941212505917   -7335.2513888322719140       0.0089006310222030
    5124.7194599141103026   -7317.4976598781277062       0.0091072369255233
    5291.4507378425432762   -7298.2623180457285343       0.0093157089786708
    5458.7561796559821232   -7277.5455188791429464       0.0095260827996005
    5626.6344324609617615   -7255.3474299020545004       0.0097383939908885
    5795.0841387320706417   -7231.6682306164238980       0.0099526781394449
    5964.1039363228646835   -7206.5081125009473908       0.0101689708162258
    6133.6924584769649300   -7179.8672790096243261       0.0103873075759453
    6303.8483338390797144   -7151.7459455700627586       0.0106077239567885
    6474.5701864660413776   -7122.1443395816913835       0.0108302554801239
    6645.8566358380739985   -7091.0627004140678764       0.0110549376502162
    6817.7062968697928227   -7058.5012794047652278       0.0112818059539390
    6990.1177799214583501   -7024.4603398573935920       0.0115108958604882
    7163.0896908103177338   -6988.9401570395957606       0.0117422428210951
    7336.6206308217178957   -6951.9410181806342734       0.0119758822687393
    7510.7091967204823959   -6913.4632224691658848       0.0122118496178627
    7685.3539807623474189   -6873.5070810508650538       0.0124501802640831
    7860.5535707051985810   -6832.0729170258109662       0.0126909095839074
    8036.3065498205442054   -6789.1610654459091165       0.0129340729344463
    8212.6114969050559012   -6744.7718733122392223       0.0131797056531277
    8389.4669862918926810   -6698.9056995721266503       0.0134278430574117
    8566.8715878624279867   -6651.5629151164093855       0.0136785204445043
    8744.8238670576229197   -6602.7439027762575279       0.0139317730910723
    8923.3223848897741846   -6552.4490573202137966       0.0141876362529580
    9102.3656979540592147   -6500.6787854509402678       0.0144461451648943
    9281.9523584402577399   -6447.4335058019296412       0.0147073350402191
    9462.0809141444315173   -6392.7136489341446577       0.0149712410705917
    9642.7499084807059262   -6336.5196573325338250       0.0152378984257071
    9823.9578804929424223   -6278.8519854023870721       0.0155073422530123
   10005.7033648667402304   -6219.7110994657941774       0.0157796076774216
   10187.9848919410778763   -6159.0974777577339410       0.0160547298010331
   10370.8009877203603537   -6097.0116104223088769       0.0163327437028445
   10554.1501738862534694   -6033.4539995087261559       0.0166136844384695
   10738.0309678096491552   -5968.4251589672549017       0.0168975870398542
   10922.4418825626526086   -5901.9256146450652523       0.0171844865149944
   11107.3814269306512870   -5833.9559042819901151       0.0174744178476514
   11292.8481054243147810   -5764.5165775061632303       0.0177674159970704
   11478.8404182916947320   -5693.6081958295599179       0.0180635158976968
   11665.3568615304084233   -5621.2313326435096315       0.0183627524588944
   11852.3959268997714389   -5547.3865732140111504       0.0186651605646624
   12039.9561019328903058   -5472.0745146769841085       0.0189707750733542
   12228.0358699491280277   -5395.2957660335259789       0.0192796308173947
   12416.6337100660894066   -5317.0509481448743827       0.0195917626029991
   12605.7480972121811647   -5237.3406937274894517       0.0199072052098914
   12795.3775021386900335   -5156.1656473478469707       0.0202259933910228
   12985.5203914324192738   -5073.5264654173142844       0.0205481618722913
   13176.1752275278286106   -4989.4238161867660892       0.0208737453522603
   13367.3404687196434679   -4903.8583797412275089       0.0212027785018784
   13559.0145691752768471   -4816.8308479943543716       0.0215352959641988
   13751.1959789472784905   -4728.3419246828580071       0.0218713323540993
   13943.8831439859586681   -4638.3923253607899824       0.0222109222580025
   14137.0745061518191505   -4546.9827773937458915       0.0225541002335957
   14330.7685032283643523   -4454.1140199530482278       0.0229009008095519
   14524.9635689344886487   -4359.7868040096873301       0.0232513584852503
   14719.6581329373457265   -4264.0018923283178083       0.0236055077304977
   14914.8506208648814209   -4166.7600594610294138       0.0239633829852494
   15110.5394543187085219   -4068.0620917411260962       0.0243250186593304
   15306.7230508867705794   -3967.9087872767518093       0.0246904491321583
   15503.3998241562330804   -3866.3009559444599290       0.0250597087524639
   15700.5681837261799956   -3763.2394193826216906       0.0254328318380146
   15898.2265352205868112   -3658.7250109848064312       0.0258098526753360
   16096.3732803011553187   -3552.7585758930499651       0.0261908055194354
   16295.0068166802666383   -3445.3409709910001766       0.0265757245935240
   16494.1255381339542510   -3336.4730648970148650       0.0269646440887411
   16693.7278345147969958   -3226.1557379571036108       0.0273575981638768
   16893.8120917650667252   -3114.3898822378387194       0.0277546209450961
   17094.3766919297268032   -3001.1764015191251929       0.0281557465256631
   17295.4200131694924494   -2886.5162112869124940       0.0285610089656650
   17496.9404297739311005   -2770.4102387257516966       0.0289704422917372
   17698.9363121746791876   -2652.8594227113326269       0.0293840804967870
   17901.4060269585825154   -2533.8647138028895824       0.0298019575397205
   18104.3479368809057632   -2413.4270742354997310       0.0302241073451660
   18307.7604008785237966   -2291.5474779123069311       0.0306505638032015
   18511.6417740832985146   -2168.2269103966582406       0.0310813607690794
   18715.9904078353065415   -2043.4663689041276484       0.0315165320629529
   18920.8046496961651428   -1917.2668622944222534       0.0319561114696036
   19126.0828434623908834   -1789.6294110632859429       0.0324001327381667
   19331.8233291788601491   -1660.5550473341882025       0.0328486295818590
   19538.0244431521823572   -1530.0448148500183834       0.0333016356777064
   19744.6845179640913557   -1398.0997689646192157       0.0337591846662713
   19951.8018824851205864   -1264.7209766342707553       0.0342213101513805
   20159.3748618878707930   -1129.9095164090565504       0.0346880456998534
   20367.4017776606960979    -993.6664784241277175       0.0351594248412310
   20575.8809476213318703    -855.9929643909139259       0.0356354810675043
   20784.8106859303115925    -716.8900875881919319       0.0361162478328439
   20994.1893031047984550    -576.3589728531093215       0.0366017585533290
   21204.0151060320640681    -434.4007565720574462       0.0370920466066776
   21414.2863979833673511    -291.0165866714966114       0.0375871453319763
   21625.0014786275278311    -146.2076226086721249       0.0380870880294110
   21836.1586440447244968       0.0249646377430667       0.0385919079599971
   22047.7561867402582720     147.6799925771485391       0.0391016383453113
   22259.7923956584636471     296.7562672165764184       0.0396163123672224
   22472.2655561963365471     447.2525830702981011       0.0401359631676231
   22685.1739502176205860     599.1677231696329500       0.0406606238481621
   22898.5158560665295226     752.5004590727724008       0.0411903274699764
   23112.2895485817971348     907.2495508746861788       0.0417251070534236
   23326.4932991105451947    1063.4137472171844365       0.0422649955778155
   23541.1253755222787731    1220.9917852990022311       0.0428100259811513
   23756.1840422228960961    1379.9823908860314532       0.0433602311598505
   23971.6675601687893504    1540.3842783216441603       0.0439156439684881
   24187.5741868807963328    1702.1961505370647956       0.0444762972195278
   24403.9021764583121694    1865.4166990618218733       0.0450422236830574
   24620.6497795934847090    2030.0446040344052108       0.0456134560865234
   24837.8152435853444331    2196.0785342129001947       0.0461900271144668
   25055.3968123538397776    2363.5171469857473312       0.0467719694082581
   25273.3927264542362536    2532.3590883825800120       0.0473593155658341
   25491.8012230911990628    2702.6029930852482721       0.0479520981414338
   25710.6205361331230961    2874.2474844387766097       0.0485503496453354
   25929.8488961264229147    3047.2911744625494066       0.0491541025435932
   26149.4845303096954012    3221.7326638614731564       0.0497633892577755
   26369.5256626283153309    3397.5705420374029018       0.0503782421647018
   26589.9705137485143496    3574.8033871004136017       0.0509986935961814
   26810.8173010720311140    3753.4297658804048297       0.0516247758387520
   27032.0642387502957718    3933.4482339386254353       0.0522565211334182
   27253.7095376990109798    4114.8573355793778319       0.0528939616753915
   27475.7514056126165087    4297.6556038618236926       0.0535371296138291
   27698.1880469787283801    4481.8415606117641801       0.0541860570515747
   27921.0176630926216603    4667.4137164336643764       0.0548407760448983
   28144.2384520719206193    4854.3705707226663435       0.0555013186032374
   28367.8486088710778859    5042.7106116767508865       0.0561677166889381
   28591.8463252958572411    5232.4323163088929505       0.0568400022169962
   28816.2297900182275043    5423.5341504594753133       0.0575182070547998
   29040.9971885907652904    5616.0145688086240625       0.0582023630218712
   29266.1467034614106524    5809.8720148887250616       0.0588925018896095
   29491.6765139882118092    6005.1049210970104468       0.0595886553810342
   29717.5847964540007524    6201.7117087082306170       0.0602908551705281
   29943.8697240811015945    6399.6907878874408198       0.0609991328835813
   30170.5294670461880742    6599.0405577028095649       0.0617135200965359
   30397.5621924950755783    6799.7594061386553221       0.0624340483363300
   30624.9660645573749207    7001.8457101083331509       0.0631607490802432
   30852.7392443616517994    7205.2978354675342416       0.0638936537556423
   31080.8798900499496085    7410.1141370273699067       0.0646327937397261
   31309.3861567929270677    7616.2929585677347859       0.0653782003592732
   31538.2561968046575203    7823.8326328506600476       0.0661299048903872
   31767.4881593577047170    8032.7314816338521268       0.0668879385582449
   31997.0801907978675445    8242.9878156842114549       0.0676523325368432
   32227.0304345593212929    8454.5999347915276303       0.0684231179487472
   32457.3370311797189061    8667.5661277822018747       0.0692003258648384
   32687.9981183149684512    8881.8846725330768095       0.0699839873040640
   32919.0118307544762501    9097.5538359854217560       0.0707741332331850
   33150.3763004362699576    9314.5718741588771081       0.0715707945665271
   33382.0896564619106357    9532.9370321655915177       0.0723740021657293
   33614.1500251118704909    9752.6475442244136502       0.0731837868394956
   33846.5555298603576375    9973.7016336751403287       0.0740001793433453
   34079.3042913908866467   10196.0975129929374816       0.0748232103793640
   34312.3944276111142244   10419.8333838027156162       0.0756529105959563
   34545.8240536683224491   10644.9074368938036059       0.0764893105875966
   34779.5912819644945557   10871.3178522344169323       0.0773324408945833
   35013.6942221716672066   11099.0627989864624396       0.0781823320027904
   35248.1309812471445184   11328.1404355203940213       0.0790390143434213
   35482.8996634488939890   11558.5489094299500721       0.0799025182927640
   35717.9983703508187318   11790.2863575473256788       0.0807728741719434
   35953.4252008581170230   12023.3509059580701432       0.0816501122466777
   36189.1782512226491235   12257.7406700163428468       0.0825342627270332
   36425.2556150583259296   12493.4537543601254583       0.0834253557671799
   36661.6553833566140383   12730.4882529265087214       0.0843234214651472
   36898.3756445018152590   12968.8422489671811491       0.0852284898625817
   37135.4144842866371619   13208.5138150638540537       0.0861405909445032
   37372.7699859276690404   13449.5010131439230463       0.0870597546390625
   37610.4402300808287691   13691.8018944960531371       0.0879860108173003
   37848.4232948568969732   13935.4144997860148578       0.0889193892929038
   38086.7172558370948536   14180.3368590724876412       0.0898599198219674
   38325.3201860886329086   14426.5669918229923496       0.0908076321027511
   38564.2301561802378274   14674.1029069298983813       0.0917625557754406
   38803.4452341978685581   14922.9426027265690209       0.0927247204219078
   39042.9634857601849944   15173.0840670034704090       0.0936941555654710
   39282.7829740343440790   15424.5252770245788270       0.0946708906706571
   39522.9017597515266971   15677.2641995435096760       0.0956549551429624
   39763.3179012227847124   15931.2987908202412655       0.0966463783286157
   40004.0294543545169290   16186.6269966373711213       0.0976451895143401
   40245.0344726644252660   16443.2467523169652850       0.0986514179271167
   40486.3310072970343754   16701.1559827370510902       0.0996650927339483
   40727.9171070396841969   16960.3526023485392216       0.1006862430416234
   40969.7908183380859555   17220.8345151920293574       0.1017148978964809
   41211.9501853122928878   17482.5996149147249525       0.1027510862841745
   41454.3932497723435517   17745.6457847875681182       0.1037948371294402
   41697.1180512343053124   18009.9708977222617250       0.1048461792958600
   41940.1226269359176513   18275.5728162885097845       0.1059051415856305
   42183.4050118526283768   18542.4493927312832966       0.1069717527393286
   42426.9632387133824523   18810.5984689882243401       0.1080460414356805
   42670.7953380166291026   19080.0178767070792674       0.1091280362913276
   42914.8993380460742628   19350.7054372631719161       0.1102177658605977
   43159.2732648868332035   19622.6589617771351186       0.1113152586352725
   43403.9151424412411870   19895.8762511325003288       0.1124205430443572
   43648.8229924449042301   20170.3550959936001163       0.1135336474538512
   43893.9948344826552784   20446.0932768232705712       0.1146546001665187
   44139.4286860046486254   20723.0885639009502484       0.1157834294216594
   44385.1225623422360513   21001.3387173406772490       0.1169201633948806
   44631.0744767241994850   21280.8414871091117675       0.1180648301978685
   44877.2824402926999028   21561.5946130438424007       0.1192174578781623
   45123.7444621194008505   21843.5958248716196977       0.1203780744189264
   45370.4585492214973783   22126.8428422266661073       0.1215467077387239
   45617.4227065780141857   22411.3333746692405839       0.1227233856912919
   45864.6349371456744848   22697.0651217039667245       0.1239081360653150
   46112.0932418752781814   22984.0357727986411192       0.1251009865842017
   46359.7956197277962929   23272.2430074028452509       0.1263019649058599
   46607.7400676904071588   23561.6844949665719469       0.1275110986224723
   46855.9245807930128649   23852.3578949593065772       0.1287284152602748
   47104.3471521241008304   24144.2608568887808360       0.1299539422793327
   47353.0057728471656446   24437.3910203200211981       0.1311877070733196
   47601.8984322170144878   24731.7460148945319816       0.1324297369692951
   47851.0231175958106178   25027.3234603492928727       0.1336800592274843
   48100.3778144695388619   25324.1209665361202497       0.1349387010410569
   48349.9605064641582430   25622.1361334409739356       0.1362056895359082
   48599.7691753621038515   25921.3665512034021958       0.1374810517704384
   48849.8018011183303315   26221.8098001358885085       0.1387648147353352
   49100.0563618768937886   26523.4634507436312560       0.1400570053533545
