                   X [km]                   Y [km]                 T [dias]
    -345.7398008039844512   -1169.3730173972280681       0.0000000000000000
    -335.5937258416890927   -1172.3475747044446962       0.0001053365547365
    -325.4339597088817868   -1175.2756660373265731       0.0002106768441629
    -315.2605457864718232   -1178.1572788932955973       0.0003160246029532
    -305.0735275136419205   -1180.9924009682320047       0.0004213835657496
    -294.8729483876643940   -1183.7810201565257557       0.0005267574671463
    -284.6588519637141417   -1186.5231245511263296       0.0006321500416737
    -274.4312818546826520   -1189.2187024435959302       0.0007375650237826
    -264.1902817309938314   -1191.8677423241626911       0.0008430061478281
    -253.9358953204153408   -1194.4702328817629677       0.0009484771480537
    -243.6681664078720928   -1197.0261630040906766       0.0010539817585751
    -233.3871388352600889   -1199.5355217776520931       0.0011595237133647
    -223.0928565012594049   -1201.9982984878024581       0.0012651067462355
    -212.7853633611456985   -1204.4144826188003208       0.0013707345908250
    -202.4647034266029380   -1206.7840638538457370       0.0014764109805793
    -192.1309207655367004   -1209.1070320751296094       0.0015821396487373
    -181.7840595018836041   -1211.3833773638714320       0.0016879243283148
    -171.4241638154249188   -1213.6130900003677198       0.0017937687520881
    -161.0512779415973341   -1215.7961604640288442       0.0018996766525787
    -150.6654461713032731   -1217.9325794334208695       0.0020056517620369
    -140.2667128507237635   -1220.0223377863082987       0.0021116978124262
    -129.8551223811260797   -1222.0654265996859067       0.0022178185354071
    -119.4307192186779929   -1224.0618371498285342       0.0023240176623211
    -108.9935478742540624   -1226.0115609123140530       0.0024302989241751
     -98.5436529132479251   -1227.9145895620713418       0.0025366660516253
     -88.0810789553818267   -1229.7709149734084804       0.0026431227749613
     -77.6058706745151170   -1231.5805292200545864       0.0027496728240900
     -67.1180727984548327   -1233.3434245751861909       0.0028563199285198
     -56.6177301087631477   -1235.0595935114629356       0.0029630678173448
     -46.1048874405676159   -1236.7290287010639531       0.0030699202192288
     -35.5795896823687201   -1238.3517230157128779       0.0031768808623891
     -25.0418817758488572   -1239.9276695267108153       0.0032839534745812
     -14.4918087156802358   -1241.4568615049672644       0.0033911417830821
      -3.9294155493319649   -1242.9392924210251294       0.0034984495146752
       6.6452526231202054   -1244.3749559450955076       0.0036058803956335
      17.2321506491892542   -1245.7638459470770158       0.0037134381517047
      27.8312333241670018   -1247.1059564965858044       0.0038211265080942
      38.4424553913194345   -1248.4012818629810226       0.0039289491894503
      49.0657715420780818   -1249.6498165153875561       0.0040369099198474
      59.7011364162346752   -1250.8515551227212654       0.0041450124227706
      70.3485046021348523   -1252.0064925537126328       0.0042532604210995
      81.0078306368700112   -1253.1146238769222236       0.0043616576370926
      91.6790690064749754   -1254.1759443607745652       0.0044702077923711
     102.3621741461193295   -1255.1904494735629214       0.0045789146079034
     113.0571004403035573   -1256.1581348834827168       0.0046877818039889
     123.7638022230527213   -1257.0789964586367660       0.0047968131002420
     134.4822337781129988   -1257.9530302670675610       0.0049060122155766
     145.2123493391447084   -1258.7802325767565890       0.0050153828681901
     155.9541030899200393   -1259.5605998556602572       0.0051249287755472
     166.7074491645172145   -1260.2941287717064824       0.0052346536543646
     177.4723416475162310   -1260.9808161928212940       0.0053445612205945
     188.2487345741957085   -1261.6206591869370186       0.0054546551894093
     199.0365819307295965   -1262.2136550220045592       0.0055649392751854
     209.8358376543816348   -1262.7598011660070370       0.0056754171914874
     220.6464556337041643   -1263.2590952869718421       0.0057860926510522
     231.4683897087336391   -1263.7115352529744996       0.0058969693657733
     242.3015936711889537   -1264.1171191321548122       0.0060080510466850
     253.1460212646665866   -1264.4758451927209535       0.0061193414039462
     264.0016261848413137   -1264.7877119029587902       0.0062308441468248
     274.8683620796611535   -1265.0527179312375665       0.0063425629836819
     285.7461825495454377   -1265.2708621460126324       0.0064545016219560
     296.6350411475858095   -1265.4421436158390861       0.0065666637681470
     307.5348913797412251   -1265.5665616093647259       0.0066790531278003
     318.4456867050375877   -1265.6441155953416455       0.0067916734054913
     329.3673805357674382   -1265.6748052426237336       0.0069045283048095
     340.2999262376878846   -1265.6586304201709936       0.0070176215283423
     351.2432771302187575   -1265.5955911970459056       0.0071309567776598
     362.1973864866449162   -1265.4856878424188835       0.0072445377532984
     373.1622075343127563   -1265.3289208255641825       0.0073583681547454
     384.1376934548325153   -1265.1252908158578521       0.0074724516804232
     395.1237973842736437   -1264.8747986827713703       0.0075867920276732
     406.1204724133719424   -1264.5774454958755086       0.0077013928927404
     417.1276715877233414   -1264.2332325248310099       0.0078162579707572
     428.1453479079876843   -1263.8421612393826763       0.0079313909557280
     439.1734543300889868   -1263.4042333093557318       0.0080467955405132
     450.2119437654168337   -1262.9194506046464994       0.0081624754168136
     461.2607690810239092   -1262.3878151952142161       0.0082784342751544
     472.3198830998338735   -1261.8093293510785315       0.0083946758048697
     483.3892386008352560   -1261.1839955422949515       0.0085112036940866
     494.4687883192892741   -1260.5118164389618869       0.0086280216297094
     505.5584849469282744   -1259.7927949111992803       0.0087451332974040
     516.6582811321587769   -1259.0269340291379194       0.0088625423815822
     527.7681294802630418   -1258.2142370629051129       0.0089802525653857
     538.8879825536009776   -1257.3547074826119569       0.0090982675306706
     550.0177928718163685   -1256.4483489583426490       0.0092165909579917
     561.1575129120354859   -1255.4951653601342514       0.0093352265265867
     572.3070951090691096   -1254.4951607579548636       0.0094541779143603
     583.4664918556213706   -1253.4483394217006662       0.0095734487978689
     594.6356555024874524   -1252.3547058211638614       0.0096930428523046
     605.8145383587599326   -1251.2142646260224410       0.0098129637514796
     617.0030926920309184   -1250.0270207058131291       0.0099332151678107
     628.2012707285969100   -1248.7929791299179669       0.0100538007723031
     639.4090246536627546   -1247.5121451675358912       0.0101747242345354
     650.6263066115454876   -1246.1845242876670454       0.0102959892226433
     661.8530687058772628   -1244.8101221590820842       0.0104175994033044
     673.0892629998126040   -1243.3889446503037561       0.0105395584417223
     684.3348415162320180   -1241.9209978295782548       0.0106618700016110
     695.5897562379461760   -1240.4062879648543003       0.0107845377451795
     706.8539591078999820   -1238.8448215237474415       0.0109075653331157
     718.1274020293818694   -1237.2366051735227757       0.0110309564245709
     729.4100368662233222   -1235.5816457810576594       0.0111547146771447
     740.7018154430104460   -1233.8799504128205626       0.0112788437468687
     752.0026895452848521   -1232.1315263348321878       0.0114033472881910
     763.3126109197503411   -1230.3363810126400040       0.0115282289539612
     774.6315312744848143   -1228.4945221112900526       0.0116534923954139
     785.9594022791361567   -1226.6059574952817002       0.0117791412621539
     797.2961755651371050   -1224.6706952285474017       0.0119051792021401
     808.6418027259085193   -1222.6887435744110917       0.0120316098616701
     819.9962353170643610   -1220.6601109955520315       0.0121584368853648
     831.3594248566233773   -1218.5848061539745686       0.0122856639161525
     842.7313228252116915   -1216.4628379109667549       0.0124132945952536
     854.1118806662723273   -1214.2942153270630570       0.0125413325621650
     865.5010497862704142   -1212.0789476620054756       0.0126697814546445
     876.8987815549033940   -1209.8170443747051195       0.0127986449086953
     888.3050273053069077   -1207.5085151232017324       0.0129279265585504
     899.7197383342619332   -1205.1533697646207202       0.0130576300366573
     911.1428659024052195   -1202.7516183551331324       0.0131877589736622
     922.5743612344358553   -1200.3032711499140532       0.0133183169983948
     934.0141755193228619   -1197.8083386030914426       0.0134493077378526
     945.4622599105141489   -1195.2668313677111200       0.0135807348171854
     956.9185655261456986   -1192.6787602956853789       0.0137126018596798
     968.3830434492518862   -1190.0441364377495574       0.0138449124867441
     979.8556447279684107   -1187.3629710434106528       0.0139776703178923
     991.3363203757497786   -1184.6352755609052565       0.0141108789707289
    1002.8250213715698465   -1181.8610616371454398       0.0142445420609337
    1014.3216986601381677   -1179.0403411176719146       0.0143786632022459
    1025.8263031521039466   -1176.1731260466012827       0.0145132460064488
    1037.3387857242712471   -1173.2594286665787422       0.0146482940833547
    1048.8590972198037434   -1170.2992614187201070       0.0147838110407891
    1060.3871884484374277   -1167.2926369425645134       0.0149198004845753
    1071.9230101866887708   -1164.2395680760130290       0.0150562660185196
    1083.4665131780664069   -1161.1400678552845420       0.0151932112443948
    1095.0176481332816820   -1157.9941495148484591       0.0153306397619261
    1106.5763657304594290   -1154.8018264873776388       0.0154685551687748
    1118.1426166153428312   -1151.5631124036824531       0.0156069610605232
    1129.7163514015148849   -1148.2780210926630389       0.0157458610306595
    1141.2975206706007612   -1144.9465665812406314       0.0158852586705620
    1152.8860749724797188   -1141.5687630943007207       0.0160251575694842
    1164.4819648254990625   -1138.1446250546348438       0.0161655613145392
    1176.0851407166856006   -1134.6741670828776023       0.0163064734906846
    1187.6955531019539194   -1131.1574039974420884       0.0164478976807068
    1199.3131524063210236   -1127.5943508144607677       0.0165898374652062
    1210.9378890241152931   -1123.9850227477154476       0.0167322964225817
    1222.5697133191899866   -1120.3294352085788432       0.0168752781290151
    1234.2085756251358362   -1116.6276038059445455       0.0170187861584565
    1245.8544262454929594   -1112.8795443461617651       0.0171628240826085
    1257.5072154539584517   -1109.0852728329668935       0.0173073954709110
    1269.1668934946067111   -1105.2448054674177911       0.0174525038905262
    1280.8334105820943023   -1101.3581586478201189       0.0175981529063234
    1292.5067169018802815   -1097.4253489696623092       0.0177443460808633
    1304.1867626104287865   -1093.4463932255403051       0.0178910869743833
    1315.8734978354336818   -1089.4213084050900306       0.0180383791447821
    1327.5668726760193294   -1085.3501116949109928       0.0181862261476046
    1339.2668372029652346   -1081.2328204784948866       0.0183346315360263
    1350.9733414589106815   -1077.0694523361516985       0.0184835988608389
    1362.6863354585716479   -1072.8600250449337636       0.0186331316704344
    1374.4057691889536272   -1068.6045565785598228       0.0187832335107904
    1386.1315926095669511   -1064.3030651073390800       0.0189339079254548
    1397.8637556526377921   -1059.9555689980927582       0.0190851584555306
    1409.6022082233205310   -1055.5620868140756556       0.0192369886396608
    1421.3469001999176271   -1051.1226373148988387       0.0193894020140136
    1433.0977814340878922   -1046.6372394564452861       0.0195424021122670
    1444.8548017510645423   -1042.1059123907946287       0.0196959924655934
    1456.6179109498657454   -1037.5286754661356099       0.0198501766026454
    1468.3870588035117635   -1032.9055482266880972       0.0200049580495398
    1480.1621950592393659   -1028.2365504126180440       0.0201603403298432
    1491.9432694387151059   -1023.5217019599515424       0.0203163269645568
    1503.7302316382495064   -1018.7610230004912637       0.0204729214721009
    1515.5230313290137474   -1013.9545338617302832       0.0206301273683007
    1527.3216181572533969   -1009.1022550667661335       0.0207879481663705
    1539.1259417445041890   -1004.2042073342123558       0.0209463873768994
    1550.9359516878068916    -999.2604115781099381       0.0211054485078355
    1562.7515975599192188    -994.2708889078357970       0.0212651350644718
    1574.5728289095393393    -989.2356606280187634       0.0214254505494307
    1586.3995952615130136    -984.1547482384429486       0.0215863984626489
    1598.2318461170505088    -979.0281734339565674       0.0217479823013630
    1610.0695309539489699    -973.8559581043824664       0.0219102055600943
    1621.9125992267970560    -968.6381243344220593       0.0220730717306336
    1633.7610003672034509    -963.3746944035622164       0.0222365843020268
    1645.6146837839999080    -958.0656907859780631       0.0224007467605597
    1657.4735988634688511    -952.7111361504403249       0.0225655625897429
    1669.3376949695493749    -947.3110533602150554       0.0227310352702976
    1681.2069214440618907    -941.8654654729702997       0.0228971682801401
    1693.0812276069184463    -936.3743957406722984       0.0230639650943671
    1704.9605627563450980    -930.8378676094907860       0.0232314291852412
    1716.8448761690892752    -925.2559047196958772       0.0233995640221755
    1728.7341171006446530    -919.6285309055592734       0.0235683730717194
    1740.6282347854678392    -913.9557701952510342       0.0237378597975434
    1752.5271784371875583    -908.2376468107378287       0.0239080276604242
    1764.4308972488290692    -902.4741851676789111       0.0240788801182305
    1776.3393403930265322    -896.6654098753225526       0.0242504206259074
    1788.2524570222426519    -890.8113457363990619       0.0244226526354626
    1800.1701962689887750    -884.9120177470199451       0.0245955795959510
    1812.0925072460302090    -878.9674510965622858       0.0247692049534600
    1824.0193390466174606    -872.9776711675708611       0.0249435321510949
    1835.9506407446972389    -866.9427035356435454       0.0251185646289647
    1847.8863613951264142    -860.8625739693238756       0.0252943058241663
    1859.8264500339007554    -854.7373084299929360       0.0254707591707710
    1871.7708556783566110    -848.5669330717535104       0.0256479280998090
    1883.7195273274044212    -842.3514742413250360       0.0258258160392551
    1895.6724139617365381    -836.0909584779252555       0.0260044264140141
    1907.6294645440450495    -829.7854125131590308       0.0261837626459061
    1919.5906280192482427    -823.4348632709061349       0.0263638281536518
    1931.5558533146972877    -817.0393378672042672       0.0265446263528579
    1943.5250893404042927    -810.5988636101317297       0.0267261606560029
    1955.4982849892546710    -804.1134679996960131       0.0269084344724220
    1967.4753891372249655    -797.5831787277103331       0.0270914512082927
    1979.4563506436052194    -791.0080236776797165       0.0272752142666206
    1991.4411183512120260    -784.3880309246783327       0.0274597270472244
    2003.4296410866170390    -777.7232287352339881       0.0276449929467216
    2015.4218676603479707    -771.0136455672038664       0.0278310153585140
    2027.4177468671261977    -764.2593100696544752       0.0280177976727732
    2039.4172274860718517    -757.4602510827384094       0.0282053432764261
    2051.4202582809321029    -750.6164976375738433       0.0283936555531406
    2063.4267880002898892    -743.7280789561158372       0.0285827378833106
    2075.4367653777931082    -736.7950244510363973       0.0287725936440425
    2087.4501391323638018    -729.8173637255963513       0.0289632262091398
    2099.4668579684280303    -722.7951265735191555       0.0291546389490894
    2111.4868705761218735    -715.7283429788639069       0.0293468352310469
    2123.5101256315215323    -708.6170431158968768       0.0295398184188222
    2135.5365717968593344    -701.4612573489650913       0.0297335918728653
    2147.5661577207379196    -694.2610162323616123       0.0299281589502519
    2159.5988320383594328    -687.0163505102016188       0.0301235230046688
    2171.6345433717306150    -679.7272911162843911       0.0303196873864000
    2183.6732403298997269    -672.3938691739673459       0.0305166554423123
    2195.7148715091602753    -665.0161159960293844       0.0307144305158407
    2207.7593854932797512    -657.5940630845365149       0.0309130159469745
    2219.8067308537138160    -650.1277421307108852       0.0311124150722427
    2231.8568561498336749    -642.6171850147942450       0.0313126312247000
    2243.9097099291361701    -635.0624238059081108       0.0315136677339127
    2255.9652407274702455    -627.4634907619230262       0.0317155279259440
    2268.0233970692511321    -619.8204183293161122       0.0319182151233401
    2280.0841274676859030    -612.1332391430331654       0.0321217326451163
    2292.1473804249903878    -604.4019860263520059       0.0323260838067421
    2304.2131044326106348    -596.6266919907400279       0.0325312719201278
    2316.2812479714402798    -588.8073902357132283       0.0327373002936098
    2328.3517595120388251    -580.9441141486950073       0.0329441722319369
    2340.4245875148599225    -573.0368973048745147       0.0331518910362557
    2352.4996804304641955    -565.0857734670609034       0.0333604600040971
    2364.5769866997416102    -557.0907765855419029       0.0335698824293616
    2376.6564547541292995    -549.0519407979363677       0.0337801616023060
    2388.7380330158362085    -540.9693004290510316       0.0339913008095283
    2400.8216698980622823    -532.8428899907313507       0.0342033033339548
    2412.9073138052112881    -524.6727441817170075       0.0344161724548252
    2424.9949131331241006    -516.4588978874901386       0.0346299114476791
    2437.0844162692906139    -508.2013861801286794       0.0348445235843419
    2449.1757715930675658    -499.9002443181583999       0.0350600121329106
    2461.2689274759081854    -491.5555077463976659       0.0352763803577401
    2473.3638322815750143    -483.1672120958124310       0.0354936315194294
    2485.4604343663640975    -474.7353931833548586       0.0357117688748071
    2497.5586820793218976    -466.2600870118201328       0.0359307956769183
    2509.6585237624703950    -457.7413297696878089       0.0361507151750098
    2521.7599077510249117    -449.1791578309677675       0.0363715306145172
    2533.8627823736173923    -440.5736077550428149       0.0365932452370501
    2545.9670959525124090    -431.9247162865185601       0.0368158622803790
    2558.0727968038290783    -423.2325203550606716       0.0370393849784210
    2570.1798332377666156    -414.4970570752404910       0.0372638165612263
    2582.2881535588194311    -405.7183637463733135       0.0374891602549643
