                   X [km]                   Y [km]                 T [dias]
    -761.8332281766014376    -988.3881479947032176       0.0000000000000000
    -753.6550617260412537    -994.6623311642125600       0.0001057197959125
    -745.4485051784622556   -1000.8995727511112364       0.0002114428575606
    -737.2136114169210259   -1007.0998325626110272       0.0003171724506589
    -728.9504335070786283   -1013.2630706442336077       0.0004229118408800
    -720.6590246968576139   -1019.3892472800692985       0.0005286642938331
    -712.3394384161015296   -1025.4783229930321795       0.0006344330750435
    -703.9917282762293098   -1031.5302585451138384       0.0007402214499311
    -695.6159480698910329   -1037.5450149376392801       0.0008460326837896
    -687.2121517706193572   -1043.5225534115124901       0.0009518700417656
    -678.7803935324820941   -1049.4628354474741627       0.0010577367888369
    -670.3207276897343263   -1055.3658227663415801       0.0011636361897923
    -661.8332087564691619   -1061.2314773292614518       0.0012695715092100
    -653.3178914262634862   -1067.0597613379525228       0.0013755460114369
    -644.7748305718261008   -1072.8506372349484081       0.0014815629605672
    -636.2040812446479094   -1078.6040677038413378       0.0015876256204217
    -627.6056986746425537   -1084.3200156695231726       0.0016937372545267
    -618.9797382697917101   -1089.9984442984191446       0.0017999011260927
    -610.3262556157909557   -1095.6393169987338752       0.0019061204979937
    -601.6453064756866524   -1101.2425974206792034       0.0020123986327462
    -592.9369467895204480   -1106.8082494567129288       0.0021187387924878
    -584.2012326739680930   -1112.3362372417700499       0.0022251442389565
    -575.4382204219763253   -1117.8265251534933213       0.0023316182334697
    -566.6479665024012320   -1123.2790778124642657       0.0024381640369028
    -557.8305275596452475   -1128.6938600824310015       0.0025447849096688
    -548.9859604132902859   -1134.0708370705328889       0.0026514841116967
    -540.1143220577315560   -1139.4099741275260840       0.0027582649024108
    -531.2156696618131946   -1144.7112368480093210       0.0028651305407098
    -522.2900605684552602   -1149.9745910706408267       0.0029720842849454
    -513.3375522942899352   -1155.2000028783645575       0.0030791293929018
    -504.3582025292847675   -1160.3874385986225661       0.0031862691217742
    -495.3520691363755191   -1165.5368648035762362       0.0032935067281482
    -486.3192101510916814   -1170.6482483103193317       0.0034008454679787
    -477.2596837811814225   -1175.7215561810937743       0.0035082885965688
    -468.1735484062388650   -1180.7567557235013282       0.0036158393685491
    -459.0608625773255085   -1185.7538144907114201       0.0037235010378563
    -449.9216850165950632   -1190.7127002816755521       0.0038312768577126
    -440.7560746169122581   -1195.6333811413298918       0.0039391700806047
    -431.5640904414770489   -1200.5158253608046834       0.0040471839582625
    -422.3457917234409251   -1205.3600014776266107       0.0041553217416387
    -413.1012378655262864   -1210.1658782759202495       0.0042635866808874
    -403.8304884396440571   -1214.9334247866145233       0.0043719820253434
    -394.5336031865088557   -1219.6626102876350615       0.0044805110235009
    -385.2106420152556439   -1224.3534043041088353       0.0045891769229932
    -375.8616650030512574   -1229.0057766085560615       0.0046979829705711
    -366.4867323947098612   -1233.6196972210855165       0.0048069324120825
    -357.0859046023024916   -1238.1951364095916688       0.0049160284924512
    -347.6592422047694981   -1242.7320646899404437       0.0050252744556561
    -338.2068059475287782   -1247.2304528261640826       0.0051346735447101
    -328.7286567420857750   -1251.6902718306453153       0.0052442290016395
    -319.2248556656398932   -1256.1114929643097184       0.0053539440674629
    -309.6954639606905175   -1260.4940877368032943       0.0054638219821705
    -300.1405430346445087   -1264.8380279066855110       0.0055738659847029
    -290.5601544594171628   -1269.1432854815998326       0.0056840793129307
    -280.9543599710390822   -1273.4098327184667596       0.0057944652036330
    -271.3232214692558273   -1277.6376421236518581       0.0059050268924772
    -261.6668010171293872   -1281.8266864531487954       0.0060157676139979
    -251.9851608406393382   -1285.9769387127528262       0.0061266906015757
    -242.2783633282810740   -1290.0883721582376893       0.0062377990874169
    -232.5464710306632412   -1294.1609602955211358       0.0063490963025324
    -222.7895466601065664   -1298.1946768808454635       0.0064605854767170
    -213.0076530902370280   -1302.1894959209369063       0.0065722698385285
    -203.2008533555827796   -1306.1453916731791196       0.0066841526152667
    -193.3692106511675775   -1310.0623386457780271       0.0067962370329531
    -183.5127883321029003   -1313.9403115979241647       0.0069085263163096
    -173.6316499131807234   -1317.7792855399575274       0.0070210236887382
    -163.7258590684625403   -1321.5792357335287761       0.0071337323722997
    -153.7954796308708865   -1325.3401376917554444       0.0072466555876934
    -143.8405755917765418   -1329.0619671793842826       0.0073597965542361
    -133.8612111005875533   -1332.7447002129415523       0.0074731584898413
    -123.8574504643353151   -1336.3883130608949159       0.0075867446109988
    -113.8293581472585743   -1339.9927822438003204       0.0077005581327535
    -103.7769987703911312   -1343.5580845344575209       0.0078146022686852
     -93.7004371111427332   -1347.0841969580546902       0.0079288802308874
     -83.5997381028826823   -1350.5710967923225780       0.0080433952299468
     -73.4749668345220641   -1354.0187615676748010       0.0081581504749230
     -63.3261885500927377   -1357.4271690673588182       0.0082731491733269
     -53.1534686483281575   -1360.7962973275941749       0.0083883945311011
     -42.9568726822415954   -1364.1261246377164298       0.0085038897525984
     -32.7364663587042344   -1367.4166295403158529       0.0086196380405615
     -22.4923155380202928   -1370.6677908313774878       0.0087356425961026
     -12.2244862335043099   -1373.8795875604153025       0.0088519066186823
      -1.9330446110541162   -1377.0519990306099771       0.0089684333060891
       8.3819430112742577   -1380.1850047989396444       0.0090852258544191
      18.7204101636934865   -1383.2785846763131303       0.0092022874580551
      29.0822902251151412   -1386.3327187277004668       0.0093196213096461
      39.4675164235781040   -1389.3473872722593114       0.0094372306000868
      49.8760218366784116   -1392.3225708834634133       0.0095551185184969
      60.3077393920002649   -1395.2582503892278964       0.0096732882522006
      70.7626018675497335   -1398.1544068720322684       0.0097917429867061
      81.2405418921865419   -1401.0110216690429752       0.0099104859056852
      91.7414919460587583   -1403.8280763722327720       0.0100295201909524
     102.2653843610374054   -1406.6055528284978209       0.0101488490224448
     112.8121513211538200   -1409.3434331397793358       0.0102684755782014
     123.3817248630346199   -1412.0416996631745405       0.0103884030343426
     133.9740368763423533   -1414.7003350110526299       0.0105086345650500
     144.5890191042111326   -1417.3193220511652726       0.0106291733425454
     155.2266031436890614   -1419.8986439067587071       0.0107500225370711
     165.8867204461785434   -1422.4382839566819712       0.0108711853168688
     176.5693023178767476   -1424.9382258354912665       0.0109926648481595
     187.2742799202192430   -1427.3984534335611443       0.0111144642951231
     198.0015842703243720   -1429.8189508971834130       0.0112365868198780
     208.7511462414358334   -1432.1997026286699111       0.0113590355824606
     219.5228965633698692   -1434.5406932864561895       0.0114818137408050
     230.3167658229607184   -1436.8419077851954171       0.0116049244507228
     241.1326844645086851   -1439.1033312958613806       0.0117283708658826
     251.9705827902267288   -1441.3249492458389796       0.0118521561377896
     262.8303909606919433   -1443.5067473190215424       0.0119762834157655
     273.7120389952938240   -1445.6487114558999565       0.0121007558469282
     284.6154567726852633   -1447.7508278536558919       0.0122255765761713
     295.5405740312353942   -1449.8130829662511587       0.0123507487461440
     306.4873203694823474   -1451.8354635045120631       0.0124762754972307
     317.4556252465859529   -1453.8179564362162637       0.0126021599675312
     328.4454179827827147   -1455.7605489861794013       0.0127284052928398
     339.4566277598414104   -1457.6632286363330877       0.0128550146066256
     350.4891836215193166   -1459.5259831258085796       0.0129819910400123
     361.5430144740198557   -1461.3488004510152223       0.0131093377217577
     372.6180490864504691   -1463.1316688657159375       0.0132370577782337
     383.7142160912809459   -1464.8745768811070320       0.0133651543334062
     394.8314439848051052   -1466.5775132658884559       0.0134936305088152
     405.9696611275981013   -1468.2404670463351977       0.0136224894235539
     417.1287957449828809   -1469.8634275063720906       0.0137517341942497
     428.3087759274892505   -1471.4463841876440711       0.0138813679350432
     439.5095296313174345   -1472.9893268895739311       0.0140113937575685
     450.7309846788037362   -1474.4922456694391713       0.0141418147709331
     461.9730687588856881   -1475.9551308424302078       0.0142726340816982
     473.2357094275651548   -1477.3779729817138104       0.0144038547938580
     484.5188341083806449   -1478.7607629184958569       0.0145354800088202
     495.8223700928681410   -1480.1034917420754482       0.0146675128253859
     507.1462445410352302   -1481.4061507999069818       0.0147999563397297
     518.4903844818289826   -1482.6687316976565398       0.0149328136453795
     529.8547168136037726   -1483.8912262992505475       0.0150660878331967
     541.2391683045950685   -1485.0736267269337532       0.0151997819913566
     552.6436655933900965   -1486.2159253613153851       0.0153338992053280
     564.0681351894021418   -1487.3181148414246309       0.0154684425578534
     575.5125034733421217   -1488.3801880647515645       0.0156034151289295
     586.9766966976935691   -1489.4021381872946677       0.0157388199957871
     598.4606409871875030   -1490.3839586236065315       0.0158746602328711
     609.9642623392813903   -1491.3256430468363760       0.0160109389118210
     621.4874866246306055   -1492.2271853887689304       0.0161476591014511
     633.0302395875716002   -1493.0885798398651332       0.0162848238677303
     644.5924468465973405   -1493.9098208492982849       0.0164224362737630
     656.1740338948371800   -1494.6909031249917916       0.0165604993797686
     667.7749261005362769   -1495.4318216336482692       0.0166990162430626
     679.3950487075389901   -1496.1325716007909250       0.0168379899180363
     691.0343268357678426   -1496.7931485107865228       0.0169774234561373
     702.6926854817074855   -1497.4135481068760782       0.0171173199058498
     714.3700495188869581   -1497.9937663912035077       0.0172576823126750
     726.0663436983667225   -1498.5337996248445052       0.0173985137191117
     737.7814926492181939   -1499.0336443278217757       0.0175398171646362
     749.5154208790157782   -1499.4932972791375505       0.0176815956856830
     761.2680527743171979   -1499.9127555167863193       0.0178238523156254
     773.0393126011570075   -1500.2920163377802965       0.0179665900847556
     784.8291245055281706   -1500.6310772981619266       0.0181098120202653
     796.6374125138767113   -1500.9299362130223017       0.0182535211462265
     808.4641005335872705   -1501.1885911565150309       0.0183977204835715
     820.3091123534738927   -1501.4070404618662451       0.0185424130500736
     832.1723716442745626   -1501.5852827213898308       0.0186876018603281
     844.0538019591382408   -1501.7233167864910683       0.0188332899257321
     855.9533267341208784   -1501.8211417676795918       0.0189794802544658
     867.8708692886775680   -1501.8787570345702989       0.0191261758514725
     879.8063528261568536   -1501.8961622158913087       0.0192733797184400
     891.7597004342951550   -1501.8733571994828253       0.0194210948537804
     903.7308350857134656   -1501.8103421323003204       0.0195693242526113
     915.7196796384126856   -1501.7071174204133968       0.0197180709067366
     927.7261568362715707   -1501.5636837290028325       0.0198673378046266
     939.7501893095428613   -1501.3800419823533048       0.0200171279313996
     951.7916995753546416   -1501.1561933638554365       0.0201674442688018
     963.8506100382068098   -1500.8921393159871513       0.0203182897951888
     975.9268429904730056   -1500.5878815403132194       0.0204696674855060
     988.0203206129002638   -1500.2434219974718417       0.0206215803112695
    1000.1309649751128745   -1499.8587629071610081       0.0207740312405469
    1012.2586980361099904   -1499.4339067481223537       0.0209270232379386
    1024.4034416447727835   -1498.9688562581316091       0.0210805592645580
    1036.5651175403650086   -1498.4636144339715429       0.0212346422780130
    1048.7436473530401599   -1497.9181845314228667       0.0213892752323865
    1060.9389526043460137   -1497.3325700652358137       0.0215444610782178
    1073.1509547077264415   -1496.7067748091096746       0.0217002027624833
    1085.3795749690325465   -1496.0408027956702881       0.0218565032285775
    1097.6247345870285699   -1495.3346583164416188       0.0220133654162941
    1109.8863546538980245   -1494.5883459218184726       0.0221707922618072
    1122.1643561557532394   -1493.8018704210389842       0.0223287866976521
    1134.4586599731458136   -1492.9752368821521031       0.0224873516527068
    1146.7691868815736598   -1492.1084506319832599       0.0226464900521725
    1159.0958575519944134   -1491.2015172561052623       0.0228062048175554
    1171.4385925513345228   -1490.2544425987969134       0.0229664988666475
    1183.7973123430019768   -1489.2672327630070868       0.0231273751135079
    1196.1719372873983502   -1488.2398941103178913       0.0232888364684440
    1208.5623876424338050   -1487.1724332608989698       0.0234508858379929
    1220.9685835640386813   -1486.0648570934692998       0.0236135261249023
    1233.3904451066782713   -1484.9171727452508094       0.0237767602281122
    1245.8278922238694122   -1483.7293876119215383       0.0239405910427360
    1258.2808447686948057   -1482.5015093475692538       0.0241050214600419
    1270.7492224943212022   -1481.2335458646437019       0.0242700543674342
    1283.2329450545144027   -1479.9255053339009010       0.0244356926484349
    1295.7319320041594892   -1478.5773961843551660       0.0246019391826647
    1308.2461027997744623   -1477.1892271032227200       0.0247687968458251
    1320.7753768000388845   -1475.7610070358662142       0.0249362685096792
    1333.3196732662997874   -1474.2927451857369761       0.0251043570420335
    1345.8789113631057717   -1472.7844510143145271       0.0252730653067195
    1358.4530101587165518   -1471.2361342410479210       0.0254423961635751
    1371.0418886256334190   -1469.6478048432907144       0.0256123524684262
    1383.6454656411151518   -1468.0194730562388941       0.0257829370730684
    1396.2636599877027948   -1466.3511493728640289       0.0259541528252483
    1408.8963903537464830   -1464.6428445438443759       0.0261260025686457
    1421.5435753339220355   -1462.8945695774980322       0.0262984891428547
    1434.2051334297620997   -1461.1063357397088112       0.0264716153833659
    1446.8809830501791112   -1459.2781545538575756       0.0266453841215476
    1459.5710425119896172   -1457.4100378007442487       0.0268197981846282
    1472.2752300404438301   -1455.5019975185145995       0.0269948603956772
    1484.9934637697479047   -1453.5540460025820266       0.0271705735735878
    1497.7256617435971293   -1451.5661958055463856       0.0273469405330583
    1510.4717419156988854   -1449.5384597371166819       0.0275239640845738
    1523.2316221503060660   -1447.4708508640237596       0.0277016470343886
    1536.0052202227416274   -1445.3633825099423120       0.0278799921845077
    1548.7924538199313247   -1443.2160682553974311       0.0280590023326688
    1561.5932405409355397   -1441.0289219376863912       0.0282386802723246
    1574.4074978974749683   -1438.8019576507795136       0.0284190287926244
    1587.2351433144694965   -1436.5351897452360390       0.0286000506783962
    1600.0760941305618417   -1434.2286328281104488       0.0287817487101290
    1612.9302675986582472   -1431.8823017628562866       0.0289641256639546
    1625.7975808864578084   -1429.4962116692324798       0.0291471843116298
    1638.6779510769840726   -1427.0703779232055695       0.0293309274205186
    1651.5712951691245962   -1424.6048161568492105       0.0295153577535745
    1664.4775300781620899   -1422.0995422582454921       0.0297004780693223
    1677.3965726363107933   -1419.5545723713796633       0.0298862911218406
    1690.3283395932523945   -1416.9699228960407709       0.0300727996607441
    1703.2727476166726319   -1414.3456104877109283       0.0302600064311656
    1716.2297132927990333   -1411.6816520574609513       0.0304479141737388
    1729.1991531269350162   -1408.9780647718412183       0.0306365256245801
    1742.1809835440044480   -1406.2348660527686661       0.0308258435152711
    1755.1751208890830185   -1403.4520735774183322       0.0310158705728414
    1768.1814814279423445   -1400.6297052781064849       0.0312066095197506
    1781.1999813475865722   -1397.7677793421753449       0.0313980630738708
    1794.2305367567928442   -1394.8663142118784890       0.0315902339484692
    1807.2730636866565419   -1391.9253285842592049       0.0317831248521908
    1820.3274780911253856   -1388.9448414110297563       0.0319767384890403
    1833.3936958475446772   -1385.9248718984520110       0.0321710775583656
    1846.4716327571993588   -1382.8654395072105672       0.0323661447548396
    1859.5612045458553894   -1379.7665639522911079       0.0325619427684432
    1872.6623268643045321   -1376.6282652028476150       0.0327584742844480
    1885.7749152889064135   -1373.4505634820807245       0.0329557419833987
    1898.8988853221339923   -1370.2334792671019841       0.0331537485410964
    1912.0341523931135725   -1366.9770332888028861       0.0333524966285806
    1925.1806318581802770   -1363.6812465317250371       0.0335519889121126
    1938.3382390014098746   -1360.3461402339189590       0.0337522280531582
    1951.5068890351728896   -1356.9717358868124393       0.0339532167083701
    1964.6864971006828000   -1353.5580552350693324       0.0341549575295716
    1977.8769782685358223   -1350.1051202764488153       0.0343574531637385
    1991.0782475392634296   -1346.6129532616669167       0.0345607062529830
    2004.2902198438785035   -1343.0815766942500886       0.0347647194345362
    2017.5128100444228494   -1339.5110133303903694       0.0349694953407310
    2030.7459329345174410   -1335.9012861788005466       0.0351750365989855
    2043.9895032399103911   -1332.2524185005647723       0.0353813458317856
    2057.2434356190269682   -1328.5644338089887242       0.0355884256566686
    2070.5076446635166576   -1324.8373558694472649       0.0357962786862062
    2083.7820448988113640   -1321.0712086992336936       0.0360049075279871
    2097.0665507846656510   -1317.2660165674019481       0.0362143147846012
