                   X [km]                   Y [km]                 T [dias]
   -2612.6760053970178888   -6001.0613397533370517       0.0000000000000000
   -2480.5131711934432133   -6057.7250964710137850       0.0001520674922988
   -2347.7102971035460541   -6112.9158283430024312       0.0003041710672145
   -2214.2684580750569694   -6166.6330886384421319       0.0004563468070718
   -2080.1887342276418167   -6218.8764425530780500       0.0006086307936112
   -1945.4722108442490480   -6269.6454672130494146       0.0007610591076974
   -1810.1199783622405448   -6318.9397516780527440       0.0009136678290264
   -1674.1331323646329565   -6366.7588969448606804       0.0010664930358343
   -1537.5127735711823789   -6413.1025159504397379       0.0012195708046047
   -1400.2600078295097319   -6457.9702335751680948       0.0013729372097769
   -1262.3759461061249567   -6501.3616866457950891       0.0015266283234540
   -1123.8617044774498481   -6543.2765239384316374       0.0016806802151107
    -984.7184041207691507   -6583.7144061813478402       0.0018351289513014
    -844.9471713051755160   -6622.6750060577960539       0.0019900105953685
    -704.5491373824303309   -6660.1580082085429240       0.0021453612071501
    -563.5254387778294358   -6696.1631092345533034       0.0023012168426886
    -421.8772169809840307   -6730.6900176993749483       0.0024576135539383
    -279.6056185365925444   -6763.7384541314249873       0.0026145873884740
    -136.7117950351589855   -6795.3081510264510143       0.0027721743891990
       6.8030968963290199   -6825.3988528495237915       0.0029304105940537
     150.9378956037652415   -6854.0103160371209015       0.0030893320357233
     295.6914344153266825   -6881.1423089992149471       0.0032489747413466
     441.0625416509134880   -6906.7946121209733974       0.0034093747322244
     587.0500406316338058   -6930.9670177647431046       0.0035705680235277
     733.6527496893335183   -6953.6593302715245954       0.0037325906240061
     880.8694821761529283   -6974.8713659627164816       0.0038954785356969
    1028.6990464741384130   -6994.6029531415042584       0.0040592677536330
    1177.1402460048882403   -7012.8539320943045823       0.0042239942655520
    1326.1918792392277737   -7029.6241550920176451       0.0043896940516046
    1475.8527397069522067   -7044.9134863912622677       0.0045564030840636
    1626.1216160065614531   -7058.7218022353827109       0.0047241573270327
    1776.9972918151204340   -7071.0489908556692171       0.0048929927361553
    1928.4785458980497879   -7081.8949524720064801       0.0050629452583235
    2080.5641521190209460   -7091.2595992937694973       0.0052340508313871
    2233.2528794499066862   -7099.1428555206184683       0.0054063453838629
    2386.5434919807357801   -7105.5446573430454009       0.0055798648346434
    2540.4347489296728781   -7110.4649529428606911       0.0057546450927068
    2694.9254046531027598   -7113.9037024936942544       0.0059307220568257
    2850.0142086556747927   -7115.8608781612174425       0.0061081316152768
    3005.6999056004233353   -7116.3364641034122542       0.0062869096455503
    3161.9812353189850000   -7115.3304564707723330       0.0064670920140597
    3318.8569328217358816   -7112.8428634062302081       0.0066487145758514
    3476.3257283080647539   -7108.8737050451491086       0.0068318131743141
    3634.3863471766330804   -7103.4230135151210561       0.0070164236408893
    3793.0375100357014162   -7096.4908329357322145       0.0072025817947809
    3952.2779327134799132   -7088.0772194182000021       0.0073903234426654
    4112.1063262685402151   -7078.1822410649347148       0.0075796843784018
    4272.5213970002268979   -7066.8059779689656352       0.0077707003827422
    4433.5218464591152951   -7053.9485222132689159       0.0079634072230422
    4595.1063714576057464   -7039.6099778701427567       0.0081578406529710
    4757.2736640803377668   -7023.7904610001669425       0.0083540364122225
    4920.0224116948793380   -7006.4900996514315921       0.0085520302262255
    5083.3512969623552635   -6987.7090338584757774       0.0087518578058550
    5247.2589978480091304   -6967.4474156410351497       0.0089535548471428
    5411.7441876320117444   -6945.7054090029432700       0.0091571570309888
    5576.8055349201658828   -6922.4831899307764616       0.0093627000228719
    5742.4417036546437885   -6897.7809463923658768       0.0095702194725618
    5908.6513531248820073   -6871.5988783353705003       0.0097797510138298
    6075.4331379783334341   -6843.9371976855554749       0.0099913302641610
    6242.7857082314421859   -6814.7961283451568306       0.0102049928244654
    6410.7077092805275242   -6784.1759061910524906       0.0104207742787904
    6579.1977819127559997   -6752.0767790728123146       0.0106387101940321
    6748.2545623171763509   -6718.4990068107708794       0.0108588361196480
    6917.8766820956734591   -6683.4428611938074027       0.0110811875873687
    7088.0627682741514946   -6646.9086259772866470       0.0113058001109107
    7258.8114433135615400   -6608.8965968806323872       0.0115327091856888
    7430.1213251210847375   -6569.4070815850027429       0.0117619502885290
    7601.9910270613681860   -6528.4403997308299950       0.0119935588773807
    7774.4191579676507899   -6485.9968829151530372       0.0122275703910305
    7947.4043221530837400   -6442.0768746889634713       0.0124640202488149
    8120.9451194220246180   -6396.6807305544507471       0.0127029438503336
    8295.0401450813951669   -6349.8088179621308882       0.0129443765751631
    8469.6879899519208266   -6301.4615163077760371       0.0131883537825704
    8644.8872403797704465   -6251.6392169295004351       0.0134349108112264
    8820.6364782477576227   -6200.3423231044398563       0.0136840829789203
    8996.9342809870086057   -6147.5712500456147609       0.0139359055822736
    9173.7792215883182507   -6093.3264248984551159       0.0141904138964542
    9351.1698686138297489   -6037.6082867374316265       0.0144476431748911
    9529.1047862085360975   -5980.4172865624450424       0.0147076286489889
    9707.5825341119943914   -5921.7538872952427482       0.0149704055278430
    9886.6016676698363881   -5861.6185637755679636       0.0152360089979539
   10066.1607378456392325   -5800.0118027574317239       0.0155044742229429
   10246.2582912325087818   -5736.9341029050792713       0.0157758363432675
   10426.8928700648684753   -5672.3859747889755454       0.0160501304759369
   10608.0630122303919052   -5606.3679408817524745       0.0163273917142273
   10789.7672512816861854   -5538.8805355538825097       0.0166076551273986
   10972.0041164481754095   -5469.9243050693594341       0.0168909557604100
   11154.7721326480950665   -5399.4998075813409741       0.0171773286336365
   11338.0698205003336625   -5327.6076131275767693       0.0174668087425855
   11521.8956963365289994   -5254.2483036258290667       0.0177594310576134
   11706.2482722129097965   -5179.4224728691197015       0.0180552305236426
   11891.1260559224792814   -5103.1307265209579782       0.0183542420598788
   12076.5275510070314340   -5025.3736821104394039       0.0186565005595281
   12262.4512567693345773   -4946.1519690272471053       0.0189620408895146
   12448.8956682850966899   -4865.4662285164949935       0.0192708978901981
   12635.8592764153909229   -4783.3171136736518747       0.0195831063750929
   12823.3405678186973091   -4699.7052894391581503       0.0198987011305847
   13011.3380249632264167   -4614.6314325930898121       0.0202177169156497
   13199.8501261391775188   -4528.0962317496687319       0.0205401884615735
   13388.8753454710276856   -4440.1003873516710883       0.0208661504716698
   13578.4121529299773101   -4350.6446116648039606       0.0211956376209988
   13768.4590143462246488   -4259.7296287718963868       0.0215286845560879
   13959.0143914214659162   -4167.3561745670504024       0.0218653258946498
   14150.0767417412880604   -4073.5249967496979480       0.0222055962253036
   14341.6445187876524869   -3978.2368548185236250       0.0225495301072937
   14533.7161719515588629   -3881.4925200653624415       0.0228971620702108
   14726.2901465453196579   -3783.2927755688806428       0.0232485266137121
   14919.3648838154258556   -3683.6384161883270281       0.0236036582072424
   15112.9388209549706517   -3582.5302485570327917       0.0239625912897545
   15307.0103911163860175   -3479.9690910758972677       0.0243253602694308
   15501.5780234240901336   -3375.9557739067877264       0.0246919995234049
   15696.6401429872694280   -3270.4911389658004737       0.0250625433974833
   15892.1951709125551133   -3163.5760399164496448       0.0254370262058670
   16088.2415243168125016   -3055.2113421627427670       0.0258154822308743
   16284.7776163399284997   -2945.3979228421935659       0.0261979457226627
   16481.8018561577846413   -2834.1366708187338190       0.0265844508989524
   16679.3126489949572715   -2721.4284866754846917       0.0269750319447489
   16877.3083961378142703   -2607.2742827075021523       0.0273697230120660
   17075.7874949472170556   -2491.6749829143532224       0.0277685582196503
   17274.7483388717264461   -2374.6315229926844950       0.0281715716527037
   17474.1893174604520027   -2256.1448503286001142       0.0285787973626089
   17674.1088163762178738   -2136.2159239900352077       0.0289902693666528
   17874.5052174084812577   -2014.8457147189631087       0.0294060216477517
   18075.3768984865600942   -1892.0352049235455070       0.0298260881541755
   18276.7222336926279240   -1767.7853886701964257       0.0302505027992741
   18478.5395932750834618   -1642.0972716755209149       0.0306792994612017
   18680.8273436614763341   -1514.9718712981673434       0.0311125119826435
   18883.5838474719857913   -1386.4102165306105690       0.0315501741705409
   19086.8074635324519477   -1256.4133479908032314       0.0319923197958186
   19290.4965468878399406   -1124.9823179137852094       0.0324389825931110
   19494.6494488154348801    -992.1181901431268670       0.0328901962604891
   19699.2645168382478005    -857.8220401223380804       0.0333459944591875
   19904.3400947383488528    -722.0949548861739231       0.0338064108133326
   20109.8745225703896722    -584.9380330518122264       0.0342714789096695
   20315.8661366747837747    -446.3523848099673046       0.0347412322972910
   20522.3132696915199631    -306.3391319159301815       0.0352157044873658
   20729.2142505733208964    -164.8994076804423514       0.0356949289528668
   20936.5674045994164771     -22.0343569605625120       0.0361789391283008
   21144.3710533890007355     122.2548638496156883       0.0366677684094373
   21352.6235149147651100     267.9670868283325831       0.0371614501530387
   21561.3231035166209040     415.1011325355916597       0.0376600176765900
   21770.4681299153126020     563.6558100227443902       0.0381635042580292
   21980.0569012259911688     713.6299168420865726       0.0386719431354777
   22190.0877209720783867     865.0222390566210606       0.0391853675069719
   22400.5588890988765343    1017.8315512498795670       0.0397038105301937
   22611.4687019874036196    1172.0566165358188755       0.0402273053222025
   22822.8154524681449402    1327.6961865688660964       0.0407558849591674
   23034.5974298348191951    1484.7490015540179229       0.0412895824760989
   23246.8129198583483230    1643.2137902570009373       0.0418284308665818
   23459.4602048006236146    1803.0892700146052903       0.0423724630825082
   23672.5375634285592241    1964.3741467450449818       0.0429217120338110
   23886.0432710277491424    2127.0671149584291015       0.0434762105881967
   24099.9755994167244353    2291.1668577673563050       0.0440359915708800
   24314.3328169607775635    2456.6720468975345284       0.0446010877643185
   24529.1131885860122566    2623.5813426985705519       0.0451715319079461
   24744.3149757933970250    2791.8933941547788891       0.0457473566979092
   24959.9364366728696041    2961.6068388961593882       0.0463285947868015
   25175.9758259172922408    3132.7203032093543698       0.0469152787833997
   25392.4313948367707781    3305.2324020488631504       0.0475074412523996
   25609.3013913727445470    3479.1417390481778966       0.0481051147141526
   25826.5840601120617066    3654.4469065311031954       0.0487083316444026
   26044.2776423013528984    3831.1464855231761248       0.0493171244740225
   26262.3803758611029480    4009.2390457631236131       0.0499315255887525
   26480.8904954001409351    4188.7231457144525848       0.0505515673289377
   26699.8062322296318598    4369.5973325771246891       0.0511772819892658
   26919.1258143776140059    4551.8601422992787775       0.0518087018185062
   27138.8474666032889218    4735.5100995891543789       0.0524458590192495
   27358.9694104113659705    4920.5457179269360495       0.0530887857476452
   27579.4898640664578124    5106.9654995768669323       0.0537375141131435
   27800.4070426075595606    5294.7679355993441277       0.0543920761782337
   28021.7191578623496753    5483.9515058631250213       0.0550525039581854
   28243.4244184619092266    5674.5146790576372950       0.0557188294207896
   28465.5210298549318395    5866.4559127053680641       0.0563910844860991
   28688.0071943225411815    6059.7736531743648811       0.0570693010261712
   28910.8811109925736673    6254.4663356907967682       0.0577535108648088
   29134.1409758543450153    6450.5323843516225679       0.0584437457773034
   29357.7849817731766962    6647.9702121373557020       0.0591400374901775
   29581.8113185049915046    6846.7782209248907748       0.0598424176809282
   29806.2181727110946667    7046.9548015004629633       0.0605509179777701
   30031.0037279727184796    7248.4983335726892619       0.0612655699593805
   30256.1661648056942795    7451.4071857855860799       0.0619864051546424
   30481.7036606754154491    7655.6797157319115286       0.0627134550423904
   30707.6143900112838310    7861.3142699663694657       0.0634467510511549
   30933.8965242217527702    8068.3091840189781578       0.0641863245589088
   31160.5482317088644777    8276.6627824086663168       0.0649322068928130
   31387.5676778833985736    8486.3733786566572235       0.0656844293289622
   31614.9530251794021751    8697.4392753002903191       0.0664430230921330
   31842.7024330692474905    8909.8587639066190604       0.0672080193555300
   32070.8140580785402562    9123.6301250863471068       0.0679794492405343
   32299.2860538008862932    9338.7516285076635540       0.0687573438164512
   32528.1165709130400501    9555.2215329103564727       0.0695417341002589
   32757.3037571896929876    9773.0380861197281774       0.0703326510563566
   32986.8457575186330359    9992.1995250610234507       0.0711301255963156
   33216.7407139155548066   10212.7040757734248473       0.0719341885786277
   33446.9867655393172754   10434.5499534246373514       0.0727448708084558
   33677.5820487068995135   10657.7353623252474790       0.0735622030373839
   33908.5246969083964359   10882.2584959432133473       0.0743862159631701
   34139.8128408223274164   11108.1175369185766613       0.0752169402294959
   34371.4446083306465880   11335.3106570781164919       0.0760544064257194
   34603.4181245338404551   11563.8360174501322035       0.0768986450866274
   34835.7315117662728881   11793.6917682794301072       0.0777496866921887
   35068.3828896112172515   12024.8760490421482245       0.0786075616673062
   35301.3703749161286396   12257.3869884608975553       0.0794723003815718
   35534.6920818079961464   12491.2227045199797431       0.0803439331490201
   35768.3461217084550299   12726.3813044804501260       0.0812224902278833
   36002.3306033490880509   12962.8608848955391295       0.0821080018203457
   36236.6436327869087108   13200.6595316261355038       0.0830004980723001
   36471.2833134194370359   13439.7753198561167665       0.0839000090731025
   36706.2477460002264706   13680.2063141080252535       0.0848065648553302
   36941.5350286542234244   13921.9505682587241608       0.0857201953945374
   37177.1432568930176785   14165.0061255551408976       0.0866409306090131
   37413.0705236305366270   14409.3710186301159411       0.0875688003595387
   37649.3149191980992327   14655.0432695183026226       0.0885038344491469
   37885.8745313603139948   14902.0208896722306235       0.0894460626228794
   38122.7474453301183530   15150.3018799783039867       0.0903955145675474
   38359.9317437846038956   15399.8842307730828907       0.0913522199114901
   38597.4255068804268376   15650.7659218595254060       0.0923162082243358
   38835.2268122692767065   15902.9449225232929166       0.0932875090167618
   39073.3337351135342033   16156.4191915492228873       0.0942661517402564
   39311.7443481018417515   16411.1866772378889436       0.0952521657868797
   39550.4567214646594948   16667.2453174221409427       0.0962455804890261
   39789.4689229898431222   16924.5930394837851054       0.0972464251191868
   40028.7790180384909036   17183.2277603704678768       0.0982547288897130
   40268.3850695602814085   17443.1473866123997141       0.0992705209525792
   40508.2851381094878889   17704.3498143394426734       0.1002938303991469
   40748.4772818604105851   17966.8329292980160972       0.1013246862599304
   40988.9595566232455894   18230.5946068682387704       0.1023631175043603
   41229.7300158597936388   18495.6327120811984059       0.1034091530405503
   41470.7867106991398032   18761.9450996361520083       0.1044628217150616
   41712.1276899535951088   19029.5296139179299644       0.1055241523126717
   41953.7510001342889154   19298.3840890143692377       0.1065931735561391
   42195.6546854670887114   19568.5063487338484265       0.1076699141059722
   42437.8367879084325978   19839.8942066229101329       0.1087544025601970
   42680.2953471612272551   20112.5454659839488158       0.1098466674541256
   42923.0284006905058050   20386.4579198929532140       0.1109467372601246
   43166.0339837396240910   20661.6293512175288924       0.1120546403873861
   43409.3101293459112640   20938.0575326345897338       0.1131704051816965
   43652.8548683566186810   21215.7402266485987639       0.1142940599252070
   43896.6662294451016351   21494.6751856096088886       0.1154256328362056
   44140.7422391264044563   21774.8601517313982185       0.1165651520688883
   44385.0809217735004495   22056.2928571098782413       0.1177126457131308
   44629.6802996332771727   22338.9710237412946299       0.1188681417942612
   44874.5383928423179896   22622.8923635407845723       0.1200316682728339
   45119.6532194432147662   22908.0545783608431520       0.1212032530444028
   45365.0227954004658386   23194.4553600099352479       0.1223829239392945
   45610.6451346164540155   23482.0923902712020208       0.1235707087223856
   45856.5182489477301715   23770.9633409211928665       0.1247666350928751
   46102.6401482209184906   24061.0658737486883183       0.1259707306840617
   46349.0088402489491273   24352.3976405737084860       0.1271830230631204
   46595.6223308471089695   24644.9562832664778398       0.1284035397308785
   46842.4786238491869881   24938.7394337664118211       0.1296323081215932
   47089.5757211237214506   25233.7447141015290981       0.1308693556027297
   47336.9116225900288555   25529.9697364074490906       0.1321147094747403
   47584.4843262345239054   25827.4121029468042252       0.1333683969708418
   47832.2918281268648570   26126.0694061287322256       0.1346304452567972
   48080.3321224361716304   26425.9392285282519879       0.1359008814306934
   48328.6032014472366427   26727.0191429059232178       0.1371797325227243
   48577.1030555768811610   27029.3067122274042049       0.1384670254949701
