                   X [km]                   Y [km]                 T [dias]
   -2974.3603347154457879   -6160.7086101463219165       0.0000000000000000
   -2843.4549350010138369   -6223.0406358778764115       0.0001568574670729
   -2711.8705327298903285   -6283.9635509753707083       0.0003137495216447
   -2579.6081979477521600   -6343.4768600130955747       0.0004707107509333
   -2446.6690062132061030   -6401.5800790281919035       0.0006277757415938
   -2313.0540385890885773   -6458.2727355247370724       0.0007849790794376
   -2178.7643816336317286   -6513.5543684774620488       0.0009423553491511
   -2043.8011273916667960   -6567.4245283355930951       0.0010999391340143
   -1908.1653733857081079   -6619.8827770264433639       0.0012577650156199
   -1771.8582226070577690   -6670.9286879590181343       0.0014158675735916
   -1634.8807835068248551   -6720.5618460274918107       0.0015742813853033
   -1497.2341699868934484   -6768.7818476145012028       0.0017330410255979
   -1358.9195013908913552   -6815.5883005945079276       0.0018921810665058
   -1219.9379024950803796   -6860.9808243370034688       0.0020517360769642
   -1080.2905034991949833   -6904.9590497094850434       0.0022117406225354
    -939.9784400172734422   -6947.5226190806197337       0.0023722292651265
    -799.0028530684102179   -6988.6711863230439121       0.0025332365627078
    -657.3648890674751328   -7028.4044168162072310       0.0026947970690316
    -515.0656998157967337   -7066.7219874490647271       0.0028569453333519
    -372.1064424917925635   -7103.6235866227625593       0.0030197159001428
    -228.4882796415639916   -7139.1089142531191101       0.0031831433088179
     -84.2123791694339872   -7173.1776817730969924       0.0033472620934494
      60.7200856715439983   -7205.8296121351504553       0.0035121067824872
     206.3079362891259620   -7237.0644398134827497       0.0036777118984780
     352.5499887614669774   -7266.8819108061134102       0.0038441119577850
     499.4450538467437468   -7295.2817826370919647       0.0040113414703066
     646.9919369928319384   -7322.2638243584106021       0.0041794349391963
     795.1894383470151979   -7347.8278165517922389       0.0043484268605817
     944.0363527657352734   -7371.9735513306213761       0.0045183517232844
    1093.5314698244169449   -7394.7008323415366249       0.0046892440085391
    1243.6735738272766412   -7416.0094747660841676       0.0048611381897136
    1394.4614438172404789   -7435.8993053221311129       0.0050340687320281
    1545.8938535858492287   -7454.3701622654189123       0.0052080700922752
    1697.9695716832475227   -7471.4218953907347895       0.0053831767185396
    1850.6873614281901155   -7487.0543660332268701       0.0055594230499180
    2004.0459809180908906   -7501.2674470694928459       0.0057368435162389
    2158.0441830391273470   -7514.0610229185676872       0.0059154725377827
    2312.6807154764096595   -7525.4349895430359538       0.0060953445250021
    2467.9543207241099481   -7535.3892544496547998       0.0062764938782415
    2623.8637360957341116   -7543.9237366902461872       0.0064589549874582
    2780.4076937343606915   -7551.0383668622962432       0.0066427622319422
    2937.5849206229772790   -7556.7330871095791736       0.0068279499800364
    3095.3941385948351126   -7561.0078511226101909       0.0070145525888579
    3253.8340643437691142   -7563.8626241388819835       0.0072026044040177
    3412.9034094347721293   -7565.2973829434413346       0.0073921397593422
    3572.6008803143217847   -7565.3121158687581556       0.0075831929765933
    3732.9251783210083886   -7563.9068227950292567       0.0077757983651900
    3893.8749996960573299   -7561.0815151501374203       0.0079699902219287
    4055.4490355939183246   -7556.8362159094858725       0.0081658028307049
    4217.6459720929315154   -7551.1709595959118815       0.0083632704622339
    4380.4644902059972082   -7544.0857922793229591       0.0085624273737723
    4543.9032658912983607   -7535.5807715763548913       0.0087633078088399
    4707.9609700631226588   -7525.6559666499742889       0.0089659459969402
    4872.6362686025622679   -7514.3114582087309827       0.0091703761532830
    5037.9278223684605109   -7501.5473385063069145       0.0093766324785058
    5203.8342872082885151   -7487.3637113406812205       0.0095847491583954
    5370.3543139689927557   -7471.7606920531970900       0.0097947603636105
    5537.4865485080599683   -7454.7384075277659576       0.0100067002494033
    5705.2296317045402247   -7436.2969961898143083       0.0102206029553421
    5873.5821994699908828   -7416.4366080050613164       0.0104365026050334
    6042.5428827596751944   -7395.1574044783919817       0.0106544333058445
    6212.1103075836053904   -7372.4595586524610553       0.0108744291486263
    6382.2830950178395142   -7348.3432551064224754       0.0110965242074359
    6553.0598612155563387   -7322.8086899542631727       0.0113207525392595
    6724.4392174184131363   -7295.8560708433424224       0.0115471481837356
    6896.4197699678043136   -7267.4856169526392478       0.0117757451628781
    7069.0001203161200465   -7237.6975589909197879       0.0120065774807994
    7242.1788650382741253   -7206.4921391949983445       0.0122396791234344
    7415.9545958429953316   -7173.8696113276564574       0.0124750840582637
    7590.3258995842998047   -7139.8302406756083656       0.0127128262340374
    7765.2913582730243434   -7104.3743040473491419       0.0129529395804994
    7940.8495490883451566   -7067.5020897709382552       0.0131954580081108
    8116.9990443892602343   -7029.2138976915302919       0.0134404154077751
    8293.7384117263736698   -6989.5100391691321420       0.0136878456505615
    8471.0662138533753023   -6948.3908370758981619       0.0139377825874304
    8648.9810087388232205   -6905.8566257935872272       0.0141902600489577
    8827.4813495778453216   -6861.9077512108333394       0.0144453118450595
    9006.5657848039008968   -6816.5445707203234633       0.0147029717647176
    9186.2328581005767774   -6769.7674532158780494       0.0149632735757044
    9366.4811084134362318   -6721.5767790894797145       0.0152262510243085
    9547.3090699619442603   -6671.9729402281782313       0.0154919378350602
    9728.7152722513255867   -6620.9563400108927453       0.0157603677104571
    9910.6982400845299708   -6568.5273933051084896       0.0160315743306902
   10093.2564935742539092   -6514.6865264635325730       0.0163055913533702
   10276.3885481549987162   -6459.4341773206588186       0.0165824524132534
   10460.0929145950231032   -6402.7707951890934055       0.0168621911219683
   10644.3680990086613747   -6344.6968408560678654       0.0171448410677423
   10829.2126028682450851   -6285.2127865795291655       0.0174304358151290
   11014.6249230164103210   -6224.3191160843825855       0.0177190089047343
   11200.6035516783904313   -6162.0163245585990808       0.0180105938529446
   11387.1469764741068502   -6098.3049186490734428       0.0183052241516536
   11574.2536804305873375   -6033.1854164576025141       0.0186029332679902
   11761.9221419942459761   -5966.6583475366142011       0.0189037546440465
   11950.1508350432850420   -5898.7242528848910297       0.0192077216966055
   12138.9382289001114259   -5829.3836849431772862       0.0195148678168695
   12328.2827883437566925   -5758.6372075896379101       0.0198252263701888
   12518.1829736224299268   -5686.4853961353646810       0.0201388306957899
   12708.6372404658704909   -5612.9288373195586246       0.0204557141065050
   12899.6440400981446146   -5537.9681293049197848       0.0207759098885002
   13091.2018192500381701   -5461.6038816726631921       0.0210994513010062
   13283.3090201718096068   -5383.8367154176003169       0.0214263715760459
   13475.9640806457700819   -5304.6672629431022870       0.0217567039181662
   13669.1654339990764129   -5224.0961680559439628       0.0220904815041666
   13862.9115091163985198   -5142.1240859610652478       0.0224277374828298
   14057.2007304527323868   -5058.7516832562560012       0.0227685049746526
   14252.0315180462075659   -4973.9796379267163502       0.0231128170715756
   14447.4022875308983203   -4887.8086393395578853       0.0234607068367149
   14643.3114501497966558   -4800.2393882382057200       0.0238122073040930
   14839.7574127676525677   -4711.2725967366686746       0.0241673514783702
   15036.7385778839416162   -4620.9089883137930883       0.0245261723345758
   15234.2533436458670622   -4529.1492978073210907       0.0248887028178406
   15432.3001038613929268   -4435.9942714079734287       0.0252549758431287
   15630.8772480123116111   -4341.4446666533467578       0.0256250242949695
   15829.9831612672987831   -4245.5012524217727332       0.0259988810271908
   16029.6162244951337925   -4148.1648089260452252       0.0263765788626516
   16229.7748142777218163   -4049.4361277070847791       0.0267581505929746
   16430.4573029234379646   -3949.3160116275034852       0.0271436289782803
   16631.6620584803094971   -3847.8052748650879948       0.0275330467469200
   16833.3874447492271429   -3744.9047429061442926       0.0279264365952101
   17035.6318212974038033   -3640.6152525388342838       0.0283238311871660
   17238.3935434715276642   -3534.9376518463227512       0.0287252631542362
   17441.6709624112481833   -3427.8728001998938453       0.0291307650950376
   17645.4624250626402500   -3319.4215682520098198       0.0295403695750899
   17849.7662741914427897   -3209.5848379291410311       0.0299541091265505
   18054.5808483967521170   -3098.3635024246759713       0.0303720162479512
   18259.9044821243951446   -2985.7584661916234836       0.0307941234039324
   18465.7355056806081848   -2871.7706449352472191       0.0312204630249800
   18672.0722452453956066   -2756.4009656056441600       0.0316510675071614
   18878.9130228863759839   -2639.6503663901967229       0.0320859692118622
   19086.2561565723044623   -2521.5197967059293660       0.0325252004655228
   19294.0999601867479214   -2402.0102171918051681       0.0329687935593760
   19502.4427435418256209   -2281.1225997009164530       0.0334167807491834
   19711.2828123919789505   -2158.8579272925690020       0.0338691942549746
   19920.6184684476575057   -2035.2171942242830482       0.0343260662607838
   20130.4480093892634613   -1910.2014059437281048       0.0347874289143888
   20340.7697288808703888   -1783.8115790805450160       0.0352533143270494
   20551.5819165841749054   -1656.0487414380550035       0.0357237545732462
   20762.8828581723610114   -1526.9139319849150525       0.0361987816904200
   20974.6708353441208601   -1396.4082008466800744       0.0366784276787109
   21186.9441258374936297   -1264.5326092972543393       0.0371627245006986
   21399.7010034439372248   -1131.2882297502560505       0.0376517040811420
   21612.9397380224691005    -996.6761457502959729       0.0381453983067196
   21826.6585955135706172    -860.6974519641817096       0.0386438390257707
   22040.8558379533569678    -723.3532541720067002       0.0391470580480358
   22255.5297234877289156    -584.6446692581321258       0.0396550871443983
   22470.6785063865281700    -444.5728252021662570       0.0401679580466260
   22686.3004370577182272    -303.1388610697180752       0.0406857024471132
   22902.3937620616161439    -160.3439270031936132       0.0412083519986227
   23118.9567241251534142     -16.1891842124208871       0.0417359383140286
   23335.9875621561914159     129.3241950348065643       0.0422684929660593
   23553.4845112577640975     276.1950274222551229       0.0428060474870404
   23771.4458027425862383     424.4221185948508719       0.0433486333686388
   23989.8696641472015472     574.0042631684050320       0.0438962820616062
   24208.7543192466582695     724.9402447394527371       0.0444490249755235
   24428.0979880687445984     877.2288358950868314       0.0450068934785451
   24647.8988869085733313    1030.8687982229762383       0.0455699188971444
   24868.1552283430428361    1185.8588823214095100       0.0461381325158585
   25088.8652212454217079    1342.1978278095125461       0.0467115655770344
   25310.0270707998315629    1499.8843633373990087       0.0472902492805738
   25531.6389785159408348    1658.9172065966181435       0.0478742147836808
   25753.6991422435166896    1819.2950643304909590       0.0484634932006075
   25976.2057561870860809    1981.0166323447188006       0.0490581156024015
   26199.1570109206841153    2144.0805955178748263       0.0496581130166529
   26422.5510934024714516    2308.4856278122156255       0.0502635164272424
   26646.3861869895408745    2474.2303922843666442       0.0508743567740888
   26870.6604714527420583    2641.3135410962668175       0.0514906649528978
   27095.3721229913244315    2809.7337155261088810       0.0521124718149108
   27320.5193142478819937    2979.4895459793410737       0.0527398081666534
   27546.1002143233090464    3150.5796519998684744       0.0533727047696859
   27772.1129887914139545    3323.0026422812652527       0.0540111923403522
   27998.5557997141186206    3496.7571146780519484       0.0546553015495305
   28225.4268056561850244    3671.8416562171360056       0.0553050630223839
   28452.7241617003928695    3848.2548431092959618       0.0559605073381111
   28680.4460194623607094    4025.9952407607329405       0.0566216650296977
   28908.5905271057126811    4205.0614037847826694       0.0572885665836685
   29137.1558293569978559    4385.4518760136352284       0.0579612424398387
   29366.1400675209624751    4567.1651905101552984       0.0586397229910671
   29595.5413794954583864    4750.1998695798865811       0.0593240385830088
   29825.3578997867880389    4934.5544247829975575       0.0600142195138678
   30055.5877595247075078    5120.2273569464387037       0.0607102960341515
   30286.2290864777169190    5307.2171561760496843       0.0614122983464243
   30517.2800050682526489    5495.5223018689366654       0.0621202566050617
   30748.7386363879231794    5685.1412627257777785       0.0628342009160058
   30980.6030982129195763    5876.0724967633304914       0.0635541613365196
   31212.8715050190658076    6068.3144513268853188       0.0642801678749435
   31445.5419679974074825    6261.8655631029669166       0.0650122504904505
   31678.6125950694222411    6456.7242581320224417       0.0657504390928031
   31912.0814909024338704    6652.8889518211826726       0.0664947635421094
   32145.9467569251246459    6850.3580489572341321       0.0672452536485813
   32380.2064913427784631    7049.1299437195175415       0.0680019391722914
   32614.8587891529350600    7249.2030196930145394       0.0687648498229307
   32849.9017421607786673    7450.5756498814762381       0.0695340152595679
   33085.3334389946685405    7653.2461967206809277       0.0703094650904073
   33321.1519651217313367    7857.2130120917327076       0.0710912288725491
   33557.3554028633370763    8062.4744373344656196       0.0718793361117474
   33793.9418314108406776    8269.0288032609387301       0.0726738162621720
   34030.9093268410433666    8476.8744301689821441       0.0734746987261679
   34268.2559621318723657    8686.0096278559030907       0.0742820128540164
   34505.9798071781624458    8896.4326956322092883       0.0750957879436963
   34744.0789288072701311    9108.1419223354150745       0.0759160532406466
   34982.5513907947752159    9321.1355863440003304       0.0767428379375264
   35221.3952538802259369    9535.4119555913603108       0.0775761711739803
   35460.6085757829714566    9750.9692875799464673       0.0784160820363997
   35700.1894112178561045    9967.8058293953727116       0.0792625995576862
   35940.1358119112555869   10185.9198177207672416       0.0801157527170167
   36180.4458266165747773   10405.3094788510006765       0.0809755704396067
   36421.1175011303857900   10625.9730287071470229       0.0818420815964750
   36662.1488783082968439   10847.9086728510501416       0.0827153150042104
   36903.5379980807192624   11071.1146064998392831       0.0835952994247352
   37145.2828974689618917   11295.5890145406719967       0.0844820635650730
   37387.3816106010781368   11521.3300715454242891       0.0853756360771142
   37629.8321687279603793   11748.3359417855790525       0.0862760455573841
   37872.6326002392233931   11976.6047792471272260       0.0871833205468093
   38115.7809306793787982   12206.1347276456417603       0.0880974895304859
   38359.2751827637839597   12436.9239204412951949       0.0890185809374481
   38603.1133763947655098   12668.9704808540700469       0.0899466231404370
   38847.2935286777210422   12902.2725218790819781       0.0908816444556696
   39091.8136539372135303   13136.8281463017483475       0.0918236731426088
   39336.6717637331676087   13372.6354467134515289       0.0927727374037334
   39581.8658668769858195   13609.6925055268948199       0.0937288653843091
   39827.3939694478467572   13847.9973949917002756       0.0946920851721588
   40073.2540748087340035   14087.5481772101356910       0.0956624247974352
   40319.4441836228288594   14328.3429041528797825       0.0966399122323925
   40565.9622938697430072   14570.3796176748091966       0.0976245753911584
   40812.8064008617511718   14813.6563495309965219       0.0986164421295079
   41059.9744972601329209   15058.1711213926100754       0.0996155402446363
   41307.4645730914780870   15303.9219448631301930       0.1006218974749335
   41555.2746157640067395   15550.9068214943745261       0.1016355414997576
   41803.4026100840274012   15799.1237428029326111       0.1026564999392108
   42051.8465382722060895   16048.5706902863112191       0.1036848003539150
   42300.6043799800827401   16299.2456354394489608       0.1047204702447858
   42549.6741123063839041   16551.1465397712381673       0.1057635370528111
   42799.0537098135901033   16804.2713548209903820       0.1068140281588271
   43048.7411445443431148   17058.6180221752038051       0.1078719708832945
   43298.7343860379551188   17314.1844734842670732       0.1089373924860783
   43549.0314013468741905   17570.9686304792812734       0.1100103201662252
   43799.6301550533316913   17828.9684049888928712       0.1110907810617417
   44050.5286092857495532   18088.1816989563849347       0.1121788022493750
   44301.7247237354094977   18348.6064044567101519       0.1132744107443911
   44553.2164556730203913   18610.2404037135274848       0.1143776335003564
   44805.0017599653292564   18873.0815691166208126       0.1154884974089182
   45057.0785890917395591   19137.1277632389974315       0.1166070292995854
   45309.4448931609877036   19402.3768388543612673       0.1177332559395111
   45562.0986199277467676   19668.8266389546479331       0.1188672040332744
   45815.0377148094339645   19936.4749967673706124       0.1200089002226638
   46068.2601209027998266   20205.3197357735080004       0.1211583710864602
   46321.7637790007720469   20475.3586697249193094       0.1223156431402203
   46575.5466276090301108   20746.5896026623340731       0.1234807428360618
   46829.6066029629728291   21019.0103289331091219       0.1246536965624481
   47083.9416390443220735   21292.6186332092038356       0.1258345306439730
   47338.5496675981121371   21567.4122905051735870       0.1270232713411476
   47593.4286181492498145   21843.3890661962723243       0.1282199448501864
   47848.5764180196056259   22120.5467160365915333       0.1294245773027937
   48103.9909923447630717   22398.8829861774102028       0.1306371947659524
   48359.6702640908333706   22678.3956131854101841       0.1318578232417102
   48615.6121540714520961   22959.0823240611134679       0.1330864886669701
   48871.8145809646812268   23240.9408362574504281       0.1343232169132779
   49128.2754613297511241   23523.9688576981388906       0.1355680337866128
