                   X [km]                   Y [km]                 T [dias]
    -351.2610847874508977   -1225.2023412682924572       0.0000000000000000
    -340.9076393309014179   -1228.1455990019117053       0.0001097531552744
    -330.5409715005308726   -1231.0425723009252579       0.0002195099928495
    -320.1611250009951846   -1233.8932489520368563       0.0003292741950106
    -309.7681435925085225   -1236.6976169371262131       0.0004390494440118
    -299.3620710906603222   -1239.4556644333081294       0.0005488394220607
    -288.9429513662310569   -1242.1673798129779698       0.0006586478113028
    -278.5108283450064164   -1244.8327516438619114       0.0007684782938060
    -268.0657460075925087   -1247.4517686890637833       0.0008783345515451
    -257.6077483892304940   -1250.0244199071169078       0.0009882202663860
    -247.1368795796111044   -1252.5506944520263914       0.0010981391200708
    -236.6531837226882260   -1255.0305816733132360       0.0012080947942014
    -226.1567050164924524   -1257.4640711160657247       0.0013180909702250
    -215.6474877129461447   -1259.8511525209760293       0.0014281313294177
    -205.1255761176763599   -1262.1918158243900052       0.0015382195528694
    -194.5910145898267274   -1264.4860511583465268       0.0016483593214682
    -184.0438475418727933   -1266.7338488506190970       0.0017585543158850
    -173.4841194394322486   -1268.9351994247549555       0.0018688082165577
    -162.9118748010795343   -1271.0900936001198716       0.0019791247036761
    -152.3271581981572638   -1273.1985222919322496       0.0020895074571659
    -141.7300142545881840   -1275.2604766113040569       0.0021999601566735
    -131.1204876466871099   -1277.2759478652785674       0.0023104864815505
    -120.4986231029731130   -1279.2449275568640132       0.0024210901108380
    -109.8644654039798922   -1281.1674073850740569       0.0025317747232513
     -99.2180593820687022   -1283.0433792449605335       0.0026425439971642
     -88.5594499212376149   -1284.8728352276455098       0.0027534016105936
     -77.8886819569326434   -1286.6557676203556184       0.0028643512411839
     -67.2058004758592205   -1288.3921689064607108       0.0029753965661918
     -56.5108505157917236   -1290.0820317654920473       0.0030865412624703
     -45.8038771653838310   -1291.7253490731905003       0.0031977890064535
     -35.0849255639785653   -1293.3221139015215613       0.0033091434741413
     -24.3540409014175800   -1294.8723195187121746       0.0034206083410833
     -13.6112684178513259   -1296.3759593892766588       0.0035321872823641
      -2.8566534035474231   -1297.8330271740471744       0.0036438839725869
       7.9097588012999802   -1299.2435167301944148       0.0037557020858588
      18.6879228067598930   -1300.6074221112642135       0.0038676452957750
      29.4777931733588048   -1301.9247375671884583       0.0039797172754032
      40.2793244122691618   -1303.1954575443189697       0.0040919216972681
      51.0924709855034536   -1304.4195766854525118       0.0042042622333364
      61.9171873061046014   -1305.5970898298446627       0.0043167425550006
      72.7534277383396386   -1306.7279920132391453       0.0044293663330641
      83.6011465978905903   -1307.8122784678848802       0.0045421372377254
      94.4602981520477130   -1308.8499446225559950       0.0046550589385627
     105.3308366199029393   -1309.8409861025745613       0.0047681351045187
     116.2127161725422297   -1310.7853987298274205       0.0048813694038845
     127.1058909332387401   -1311.6831785227811906       0.0049947655042849
     138.0103149776454075   -1312.5343216964988642       0.0051083270726624
     148.9259423339915145   -1313.3388246626636828       0.0052220577752618
     159.8527269832727029   -1314.0966840295864131       0.0053359612776151
     170.7906228594476943   -1314.8078966022192162       0.0054500412445255
     181.7395838496314298   -1315.4724593821715644       0.0055643013400526
     192.6995637942892472   -1316.0903695677288852       0.0056787452274963
     203.6705164874322804   -1316.6616245538511976       0.0057933765693818
     214.6523956768115795   -1317.1862219321960765       0.0059081990274439
     225.6451550641136237   -1317.6641594911206994       0.0060232162626118
     236.6487483051554079   -1318.0954352156988989       0.0061384319349936
     247.6631290100789045   -1318.4800472877218454       0.0062538497038605
     258.6882507435481671   -1318.8179940857094152       0.0063694732276321
     269.7240670249437926   -1319.1092741849186041       0.0064853061638602
     280.7705313285603097   -1319.3538863573467097       0.0066013521692140
     291.8275970838002422   -1319.5518295717363344       0.0067176148994643
     302.8952176753722938   -1319.7031029935837978       0.0068340980094681
     313.9733464434873440   -1319.8077059851364083       0.0069508051531537
     325.0619366840548992   -1319.8656381054011035       0.0070677399835044
     336.1609416488793158   -1319.8768991101421761       0.0071849061525439
     347.2703145458595486   -1319.8414889518867312       0.0073023073113207
     358.3900085391830430   -1319.7594077799183196       0.0074199471098922
     369.5199767495244032   -1319.6306559402810308       0.0075378291973102
     380.6601722542446282   -1319.4552339757765367       0.0076559572216047
     391.8105480875869375   -1319.2331426259661384       0.0077743348297689
     402.9710572408761777   -1318.9643828271600796       0.0078929656677441
     414.1416526627157282   -1318.6489557124161820       0.0080118533804035
     425.3222872591851456   -1318.2868626115396182       0.0081310016115378
     436.5129138940423559   -1317.8781050510722253       0.0082504140038391
     447.7134853889196506   -1317.4226847542893211       0.0083700941988860
     458.9239545235204218   -1316.9206036411869718       0.0084900458371280
     470.1442740358243100   -1316.3718638284806275       0.0086102725578702
     481.3743966222809263   -1315.7764676295942081       0.0087307779992580
     492.6142749380109649   -1315.1344175546478255       0.0088515657982618
     503.8638615970072578   -1314.4457163104486881       0.0089726395906615
     515.1231091723327609   -1313.7103668004808696       0.0090940030110315
     526.3919701963217221   -1312.9283721248916663       0.0092156596927249
     537.6703971607769290   -1312.0997355804761355       0.0093376132678586
     548.9583425171770159   -1311.2244606606741399       0.0094598673672979
     560.2557586768671172   -1310.3025510555378332       0.0095824256206409
     571.5625980112679372   -1309.3340106517312051       0.0097052916562036
     582.8788128520710643   -1308.3188435325068895       0.0098284691010043
     594.2043554914434935   -1307.2570539776897931       0.0099519615807486
     605.5391781822265784   -1306.1486464636595883       0.0100757727198139
     616.8832331381393033   -1304.9936256633345693       0.0101999061412340
     628.2364725339763254   -1303.7919964461452764       0.0103243654666842
     639.5988485058137485   -1302.5437638780197176       0.0104491543164658
     650.9703131512070513   -1301.2489332213581292       0.0105742763094907
     662.3508185293975430   -1299.9075099350184246       0.0106997350632664
     673.7403166615090413   -1298.5194996742793592       0.0108255341938809
     685.1387595307544416   -1297.0849082908323453       0.0109516773159868
     696.5460990826375109   -1295.6037418327457544       0.0110781680427866
     707.9622872251528634   -1294.0760065444417251       0.0112050099860176
     719.3872758289920739   -1292.5017088666766085       0.0113322067559362
     730.8210167277426308   -1290.8808554364995871       0.0114597619613027
     742.2634617180964369   -1289.2134530872424421       0.0115876792093667
     753.7145625600475114   -1287.4995088484761254       0.0117159621058511
     765.1742709770996953   -1285.7390299459889320       0.0118446142549376
     776.6425386564673090   -1283.9320238017528482       0.0119736392592508
     788.1193172492795611   -1282.0784980338951300       0.0121030407198438
     799.6045583707851847   -1280.1784604566605594       0.0122328222361822
     811.0982136005548000   -1278.2319190803852962       0.0123629874061295
     822.6002344826887338   -1276.2388821114604980       0.0124935398259320
     834.1105725260158579   -1274.1993579522945765       0.0126244830902030
     845.6291792043018631   -1272.1133552012822747       0.0127558207919083
     857.1560059564545782   -1269.9808826527680594       0.0128875565223507
     868.6910041867233758   -1267.8019492970033752       0.0130196938711550
     880.2341252649108583   -1265.5765643201168587       0.0131522364262528
     891.7853205265728320   -1263.3047371040695452       0.0132851877738674
     903.3445412732274917   -1260.9864772266209911       0.0134185514984986
     914.9117387725548269   -1258.6217944612787960       0.0135523311829079
     926.4868642586084206   -1256.2106987772697266       0.0136865304081030
     938.0698689320181529   -1253.7532003394901494       0.0138211527533227
     949.6607039601973383   -1251.2493095084662400       0.0139562017960223
     961.2593204775440654   -1248.6990368403066896       0.0140916811118581
     972.8656695856527676   -1246.1023930866610954       0.0142275942746722
     984.4797023535185190   -1243.4593891946753956       0.0143639448564779
     996.1013698177421247   -1240.7700363069441210       0.0145007364274443
    1007.7306229827382822   -1238.0343457614631006       0.0146379725558814
    1019.3674128209386254   -1235.2523290915810321       0.0147756568082250
    1031.0116902730055699   -1232.4239980259567346       0.0149137927490214
    1042.6634062480311513   -1229.5493644885002595       0.0150523839409130
    1054.3225116237485963   -1226.6284405983292345       0.0151914339446228
    1065.9889572467375274   -1223.6612386697154307       0.0153309463189393
    1077.6626939326329193   -1220.6477712120349679       0.0154709246207020
    1089.3436724663313271   -1217.5880509297119261       0.0156113724047860
    1101.0318436021984780   -1214.4820907221690049       0.0157522932240869
    1112.7271580642761819   -1211.3299036837693166       0.0158936906295064
    1124.4295665464919693   -1208.1315031037624976       0.0160355681699368
    1136.1390197128657746   -1204.8869024662317315       0.0161779293922461
    1147.8554681977168457   -1201.5961154500316752       0.0163207778412632
    1159.5788626058727004   -1198.2591559287329801       0.0164641170597632
    1171.3091535128796750   -1194.8760379705672676       0.0166079505884517
    1183.0462914652075597   -1191.4467758383609635       0.0167522819659507
    1194.7902269804617390   -1187.9713839894823195       0.0168971147287833
    1206.5409105475864635   -1184.4498770757741113       0.0170424524113585
    1218.2982926270813095   -1180.8822699434974766       0.0171882985459570
    1230.0623236512021776   -1177.2685776332639307       0.0173346566627158
    1241.8329540241754785   -1173.6088153799771590       0.0174815302896133
    1253.6101341224034513   -1169.9029986127638949       0.0176289229524548
    1265.3938142946803964   -1166.1511429549148033       0.0177768381748573
    1277.1839448623916269   -1162.3532642238105836       0.0179252794782346
    1288.9804761197303833   -1158.5093784308635350       0.0180742503817829
    1300.7833583339072447   -1154.6195017814450239       0.0182237544024654
    1312.5925417453559021   -1150.6836506748193187       0.0183737950549979
    1324.4079765679425691   -1146.7018417040699205       0.0185243758518339
    1336.2296129891828969   -1142.6740916560377173       0.0186755003031494
    1348.0574011704479744   -1138.6004175112454959       0.0188271719168287
    1359.8912912471653271   -1134.4808364438224544       0.0189793941984492
    1371.7312333290485640   -1130.3153658214414463       0.0191321706512669
    1383.5771775002885988   -1126.1040232052364445       0.0192855047762012
    1395.4290738197755672   -1121.8468263497322823       0.0194394000718208
    1407.2868723213075555   -1117.5437932027737133       0.0195938600343281
    1419.1505230137961462   -1113.1949419054431019       0.0197488881575454
    1431.0199758814835604   -1108.8002907919849349       0.0199044879328993
    1442.8951808841479760   -1104.3598583897337448       0.0200606628494068
    1454.7760879573211241   -1099.8736634190320274       0.0202174163936597
    1466.6626470124931529   -1095.3417247931511156       0.0203747520498108
    1478.5548079373245400   -1090.7640616182113718       0.0205326732995586
    1490.4525205958620973   -1086.1406931931030613       0.0206911836221326
    1502.3557348287461082   -1081.4716390094063172       0.0208502864942793
    1514.2644004534201940   -1076.7569187513047382       0.0210099853902466
    1526.1784672643516387   -1071.9965522955053530       0.0211702837817700
    1538.0978850332298862   -1067.1905597111549469       0.0213311851380574
    1550.0226035091898211   -1062.3389612597532050       0.0214926929257748
    1561.9525724190186793   -1057.4417773950701758       0.0216548106090314
    1573.8877414673670501   -1052.4990287630594139       0.0218175416493653
    1585.8280603369632900   -1047.5107362017670312       0.0219808895057287
    1597.7734786888247527   -1042.4769207412505239       0.0221448576344733
    1609.7239461624701562   -1037.3976036034837307       0.0223094494893358
    1621.6794123761292212   -1032.2728062022717950       0.0224746685214237
    1633.6398269269632237   -1027.1025501431606699       0.0226405181791998
    1645.6051393912655385   -1021.8868572233410532       0.0228070019084688
    1657.5752993246840106   -1016.6257494315625536       0.0229741231523618
    1669.5502562624310485   -1011.3192489480389895       0.0231418853513225
    1681.5299597194909893   -1005.9673781443522103       0.0233102919430924
    1693.5143591908413327   -1000.5701595833622832       0.0234793463626962
    1705.5034041516614707    -995.1276160191090412       0.0236490520424274
    1717.4970440575445991    -989.6397703967165853       0.0238194124118340
    1729.4952283447109949    -984.1066458522986977       0.0239904308977037
    1741.4979064302262941    -978.5282657128589108       0.0241621109240500
    1753.5050277122079478    -972.9046534961925090       0.0243344559120971
    1765.5165415700409994    -967.2358329107886448       0.0245074692802659
    1777.5323973645949991    -961.5218278557314306       0.0246811544441596
    1789.5525444384288676    -955.7626624205922781       0.0248555148165491
    1801.5769321160171330    -949.9583608853394026       0.0250305538073585
    1813.6055097039509292    -944.1089477202253875       0.0252062748236513
    1825.6382264911583206    -938.2144475856889585       0.0253826812696155
    1837.6750317491193982    -932.2748853322523246       0.0255597765465493
    1849.7158747320738712    -926.2902860004121521       0.0257375640528470
    1861.7607046772434387    -920.2606748205364511       0.0259160471839844
    1873.8094708050382451    -914.1860772127593009       0.0260952293325049
    1885.8621223192735670    -908.0665187868694375       0.0262751138880046
    1897.9186084073855909    -901.9020253422085034       0.0264557042371186
    1909.9788782406451446    -895.6926228675567927       0.0266370037635063
    1922.0428809743680176    -889.4383375410254757       0.0268190158478373
    1934.1105657481377875    -883.1391957299489377       0.0270017438677772
    1946.1818816860086372    -876.7952239907674539       0.0271851911979733
    1958.2567778967329559    -870.4064490689235072       0.0273693612100403
    1970.3352034739618830    -863.9728978987412802       0.0275542572725463
    1982.4171074964733634    -857.4945976033169472       0.0277398827509982
    1994.5024390283783760    -850.9715754944052151       0.0279262410078281
    2006.5911471193355737    -844.4038590723006337       0.0281133354023785
    2018.6831808047734285    -837.7914760257250464       0.0283011692908887
    2030.7784891060953214    -831.1344542317100377       0.0284897460264800
    2042.8770210309023696    -824.4328217554769935       0.0286790689591424
    2054.9787255732017002    -817.6866068503217093       0.0288691414357197
    2067.0835517136306407    -810.8958379574960418       0.0290599667998958
    2079.1914484196613557    -804.0605437060828535       0.0292515483921805
    2091.3023646458209441    -797.1807529128803935       0.0294438895498956
    2103.4162493339117646    -790.2564945822806521       0.0296369936071603
    2115.5330514132137978    -783.2877979061421456       0.0298308638948778
    2127.6527198007161132    -776.2746922636742966       0.0300255037407210
    2139.7752034013151388    -769.2172072213046476       0.0302209164691182
    2151.9004511080452176    -762.1153725325632422       0.0304171054012394
    2164.0284118022859730    -754.9692181379522253       0.0306140738549824
    2176.1590343539774040    -747.7787741648186284       0.0308118251449583
    2188.2922676218372544    -740.5440709272299955       0.0310103625824781
    2200.4280604535820203    -733.2651389258469408       0.0312096894755385
    2212.5663616861288574    -725.9420088477919535       0.0314098091288078
    2224.7071201458293217    -718.5747115665225238       0.0316107248436121
    2236.8502846486676390    -711.1632781416977878       0.0318124399179217
    2248.9958040004885333    -703.7077398190522217       0.0320149576463366
    2261.1436269972077753    -696.2081280302601272       0.0322182813200729
    2273.2937024250300055    -688.6644743928039816       0.0324224142269491
    2285.4459790606638308    -681.0768107098431301       0.0326273596513719
    2297.6004056715355546    -673.4451689700758834       0.0328331208743227
    2309.7569310160097302    -665.7695813476091189       0.0330397011733435
    2321.9155038436033465    -658.0500802018181048       0.0332471038225231
    2334.0760728952009231    -650.2866980772145098       0.0334553320924834
    2346.2385869032686969    -642.4794677033062271       0.0336643892503657
    2358.4029945920774480    -634.6284219944598135       0.0338742785598168
    2370.5692446779094098    -626.7335940497617912       0.0340850032809749
    2382.7372858692851878    -618.7950171528808596       0.0342965666704568
    2394.9070668671697604    -610.8127247719252182       0.0345089719813430
    2407.0785363651962143    -602.7867505593028454       0.0347222224631648
    2419.2516430498762929    -594.7171283515783671       0.0349363213618905
    2431.4263356008223127    -586.6038921693332213       0.0351512719199114
    2443.6025626909572566    -578.4470762170166154       0.0353670773760282
    2455.7802729867398739    -570.2467148828097834       0.0355837409654377
    2467.9594151483711357    -562.0028427384712586       0.0358012659197189
    2480.1399378300175158    -553.7154945391986303       0.0360196554668190
    2492.3217896800247217    -545.3847052234810917       0.0362389128310408
    2504.5049193411364286    -537.0105099129464179       0.0364590412330278
    2516.6892754507061909    -528.5929439122207896       0.0366800438897519
    2528.8748066409216335    -520.1320427087729286       0.0369019240144990
    2541.0614615390118161    -511.6278419727705113       0.0371246848168555
    2553.2491887674686950    -503.0803775569241338       0.0373483295026954
    2565.4379369442676762    -494.4896854963415649       0.0375728612741660
    2577.6276546830740699    -485.8558020083722795       0.0377982833296748
    2589.8182905934713745    -477.1787634924554595       0.0380245988638761
    2602.0097932811695500    -468.4586065299666870       0.0382518110676574
    2614.2021113482228429    -459.6953678840643533       0.0384799231281257
