                   X [km]                   Y [km]                 T [dias]
   -2977.2063218794114619   -6159.3337705324011040       0.0000000000000000
   -2846.3452001779796774   -6221.7189916768747935       0.0001568395598752
   -2714.8045804436505932   -6282.6957375125639373       0.0003137136948801
   -2582.5855325628176615   -6342.2635120847699000       0.0004706569798633
   -2449.6891319398755513   -6400.4218308986710326       0.0006277039891109
   -2316.1164594884508006   -6457.1702209232180394       0.0007848892960653
   -2181.8686016226438369   -6512.5082205950438947       0.0009422474730441
   -2046.9466502481948282   -6566.4353798222509795       0.0010998130909588
   -1911.3517027535640409   -6618.9512599879644767       0.0012576207190339
   -1775.0848620010312970   -6670.0554339539439752       0.0014157049245253
   -1638.1472363177408624   -6719.7474860641223131       0.0015741002724394
   -1500.5399394866476541   -6768.0270121478715737       0.0017328413252519
   -1362.2640907375141524   -6814.8936195234609841       0.0018919626426267
   -1223.3208147377349633   -6860.3469270010073160       0.0020514987811350
   -1083.7112415832496026   -6904.3865648857836277       0.0022114842939737
    -943.4365067893276091   -6947.0121749811387417       0.0023719537306852
    -802.4977512813353542   -6988.2234105914694737       0.0025329416368753
    -660.8961213854476000   -7028.0199365248954564       0.0026944825539334
    -518.6327688193381391   -7066.4014290961922597       0.0028566110187505
    -375.7088506828070535   -7103.3675761292297466       0.0030193615634392
    -232.1255294483599130   -7138.9180769596441678       0.0031827687150521
     -87.8839729517741830   -7173.0526424372501424       0.0033468669953015
      57.0146456174230920   -7205.7709949283753303       0.0035116909202782
     202.5691477254833046   -7237.0728683180532244       0.0036772750001711
     348.7783495040241064   -7266.9580080123732841       0.0038436537389863
     495.6410617596600900   -7295.4261709403808709       0.0040108616342666
     643.1560899836772478   -7322.4771255560535792       0.0041789331768108
     791.3222343617387651   -7348.1106518403330483       0.0043479028503933
     940.1382897836621169   -7372.3265413028002513       0.0045178051314835
    1089.6030458532013654   -7395.1245969833780691       0.0046886744889653
    1239.7152868979001141   -7416.5046334539028976       0.0048605453838572
    1390.4737919789790794   -7436.4664768197390003       0.0050334522690314
    1541.8773349012767540   -7455.0099647211800402       0.0052074295889339
    1693.9246842231991650   -7472.1349463346050470       0.0053825117793043
    1846.6146032667513737   -7487.8412823738626685       0.0055587332668961
    1999.9458501276044444   -7502.1288450914244095       0.0057361284691957
    2153.9171776851712821   -7514.9975182792704800       0.0059147317941436
    2308.5273336127756920   -7526.4471972700102924       0.0060945776398538
    2463.7750603878321272   -7536.4777889376209714       0.0062757003943342
    2619.6590953020399866   -7545.0892116981749496       0.0064581344352072
    2776.1781704717295725   -7552.2813955106794310       0.0066419141294295
    2933.3310128480770800   -7558.0542818774110856       0.0068270738330132
    3091.1163442275546913   -7562.4078238446109026       0.0070136478907459
    3249.5328812622387886   -7565.3419860026679089       0.0072016706359118
    3408.5793354703350815   -7566.8567444866184815       0.0073911763900120
    3568.2544132465727671   -7566.9520869761117865       0.0075821994624853
    3728.5568158728024173   -7565.6280126957226457       0.0077747741504300
    3889.4852395284938211   -7562.8845324147760039       0.0079689347383238
    4051.0383753014079957   -7558.7216684474333306       0.0081647154977455
    4213.2149091981518723   -7553.1394546523106328       0.0083621506870967
    4376.0135221549826383   -7546.1379364324266135       0.0085612745513221
    4539.4328900484297264   -7537.7171707346515177       0.0087621213216319
    4703.4716837061314436   -7527.8772260493396971       0.0089647252152230
    4868.1285689176074811   -7516.6181824097284334       0.0091691204350005
    5033.4022064451510232   -7503.9401313913385820       0.0093753411693001
    5199.2912520346399106   -7489.8431761111196465       0.0095834215916093
    5365.7943564265951863   -7474.3274312267740243       0.0097933958602901
    5532.9101653670468295   -7457.3930229356883501       0.0100052981183008
    5700.6373196186095811   -7439.0400889739894410       0.0102191624929184
    5868.9744549715269386   -7419.2687786153828711       0.0104350230954608
    6037.9202022546833177   -7398.0792526698760412       0.0106529140210099
    6207.4731873469245329   -7375.4716834826567720       0.0108728693481337
    6377.6320311880481313   -7351.4462549325062355       0.0110949231386096
    6548.3953497901075025   -7326.0031624303637727       0.0113191094371470
    6719.7617542486786988   -7299.1426129177898474       0.0115454622711105
    6891.7298507541199797   -7270.8648248652079928       0.0117740156502433
    7064.2982406029386766   -7241.1700282701849574       0.0120048035663903
    7237.4655202091162209   -7210.0584646554952997       0.0122378599932220
    7411.2302811156278040   -7177.5303870672587436       0.0124732188859576
    7585.5911100057528529   -7143.5860600727473866       0.0127109141810895
    7760.5465887147029207   -7108.2257597583620736       0.0129509797961069
    7936.0952942410758624   -7071.4497737272913582       0.0131934496292199
    8112.2357987584564398   -7033.2584010972268516       0.0134383575590840
    8288.9666696270505781   -6993.6519524979348716       0.0136857374445241
    8466.2864694053005223   -6952.6307500686898493       0.0139356231242600
    8644.1937558615954913   -6910.1951274556768112       0.0141880484166301
    8822.6870819859977928   -6866.3454298092792669       0.0144430471193170
    9001.7649960019862192   -6821.0820137812434041       0.0147006530090727
    9181.4260413783467811   -6774.4052475218586551       0.0149608998414432
    9361.6687568409124651   -6726.3155106768435871       0.0152238213504947
    9542.4916763845321839   -6676.8131943843727640       0.0154894512485388
    9723.8933292849415011   -6625.8987012718043843       0.0157578232258584
    9905.8722401107588666   -6573.5724454524743123       0.0160289709504337
   10088.4269287354381959   -6519.8348525222663739       0.0163029280676681
   10271.5559103493960720   -6464.6863595562153932       0.0165797282001154
   10455.2576954719916102   -6408.1274151049083230       0.0168594049472050
   10639.5307899637209630   -6350.1584791908526313       0.0171419918849699
   10824.3736950382590294   -6290.7800233046928042       0.0174275225657727
   11009.7849072748394974   -6229.9925304014823269       0.0177160305180331
   11195.7629186302583548   -6167.7964948966218799       0.0180075492459554
   11382.3062164512612071   -6104.1924226619066758       0.0183021122292554
   11569.4132834869324142   -6039.1808310214692028       0.0185997529228887
   11757.0825979007986462   -5972.7622487474282025       0.0189005047567781
   11945.3126332834635832   -5904.9372160557295501       0.0192044011355422
   12134.1018586648024211   -5835.7062846016406183       0.0195114754382230
   12323.4487385265838384   -5765.0700174753537794       0.0198217610180153
   12513.3517328148809611   -5693.0289891973698104       0.0201352912019947
   12703.8092969525878289   -5619.5837857137921674       0.0204520992908468
   12894.8198818519977067   -5544.7350043916085269       0.0207722185585964
   13086.3819339274432423   -5468.4832540138095283       0.0210956822523369
   13278.4938951078092941   -5390.8291547744374839       0.0214225235919597
   13471.1542028494313854   -5311.7733382735850682       0.0217527757698838
   13664.3612901485594193   -5231.3164475121729993       0.0220864719507867
   13858.1135855542052013   -5149.4591368867722849       0.0224236452713338
   14052.4095131809990562   -5066.2020721843146021       0.0227643288399089
   14247.2474927218809171   -4981.5459305766098623       0.0231085557363458
   14442.6259394610096933   -4895.4914006148692351       0.0234563590116579
   14638.5432642866635433   -4808.0391822240999318       0.0238077716877707
   14834.9978737041528802   -4719.1899866974254110       0.0241628267572524
   15031.9881698488097754   -4628.9445366903073591       0.0245215571830456
   15229.5125504988991452   -4537.3035662146266986       0.0248839958981995
   15427.5694090887391212   -4444.2678206327345833       0.0252501758056022
   15626.1571347217141010   -4349.8380566514060774       0.0256201297777122
   15825.2741121834587830   -4254.0150423156756005       0.0259938906562922
   16024.9187219548475696   -4156.7995570025823326       0.0263714912521408
   16225.0893402252695523   -4058.1923914148287622       0.0267529643448270
   16425.7843389059198671   -3958.1943475743701129       0.0271383426824221
   16627.0020856428272964   -3856.8062388158687099       0.0275276589812346
   16828.7409438303147908   -3754.0288897801010535       0.0279209459255431
   17030.9992726241871424   -3649.8631364072125507       0.0283182361673315
   17233.7754269551878679   -3544.3098259299717938       0.0287195623260223
   17437.0677575422923837   -3437.3698168668374819       0.0291249569882119
   17640.8746109061357856   -3329.0439790149725923       0.0295344527074062
   17845.1943293825133878   -3219.3331934432126218       0.0299480820037542
   18050.0252511358376069   -3108.2383524848714842       0.0303658773637849
   18255.3657101726166729   -2995.7603597304755567       0.0307878712401429
   18461.2140363550279289   -2881.9001300204181462       0.0312140960513232
   18667.5685554145420610   -2766.6585894375389216       0.0316445841814094
   18874.4275889654963976   -2650.0366752995796560       0.0320793679798091
   19081.7894545187155018   -2532.0353361515358301       0.0325184797609907
   19289.6524654953063873   -2412.6555317579918665       0.0329619518042214
   19498.0149312402463693   -2291.8982330952590019       0.0334098163533040
   19706.8751570362474013   -2169.7644223435418098       0.0338621056163146
   19916.2314441174239619   -2046.2550928788805322       0.0343188517653413
   20126.0820896832410654   -1921.3712492651227421       0.0347800869362218
   20336.4253869122658216   -1795.1139072457233397       0.0352458432282823
   20547.2596249760536011   -1667.4840937355086226       0.0357161527040767
   20758.5830890531469777   -1538.4828468122991580       0.0361910473891252
   20970.3940603428745817   -1408.1112157084835417       0.0366705592716544
   21182.6908160795246658   -1276.3702608024625533       0.0371547203023370
   21395.4716295462276321   -1143.2610536100630725       0.0376435623940315
   21608.7347700890095439   -1008.7846767757947646       0.0381371174215231
   21822.4785031308420002    -872.9422240640229802       0.0386354172212645
   22036.7010901858629950    -735.7348003501393805       0.0391384935911165
   22251.4007888734377048    -597.1635216114960940       0.0396463782900898
   22466.5758529323211405    -457.2295149183985927       0.0401591030380865
   22682.2245322349190246    -315.9339184248983088       0.0406766995156421
   22898.3450728014067863    -173.2778813595460008       0.0411991993636677
   23114.9357168141505099     -29.2625640160311882       0.0417266341831933
   23331.9947026319023280     116.1108622562297086       0.0422590355351099
   23549.5202648041122302     262.8412150616456984       0.0427964349399129
   23767.5106340854290465     410.9273009680203472       0.0433388638774469
   23985.9640374498849269     560.3679155163557652       0.0438863537866477
   24204.8786981054836360     711.1618432305178885       0.0444389360652884
   24424.2528355085487419     863.3078576272553164       0.0449966420697231
   24644.0846653783119109    1016.8047212260663628       0.0455595031146320
   24864.3723997112865618    1171.6511855593394102       0.0461275504727667
   25085.1142467959398346    1327.8459911824518258       0.0467008153746959
   25306.3084112271535560    1485.3878676840608932       0.0472793290085514
   25527.9530939209289500    1644.2755336963973605       0.0478631225197747
   25750.0464921289858466    1804.5076969057331553       0.0484522270108628
   25972.5867994533546153    1966.0830540628153358       0.0490466735411164
   26195.5722058611863758    2129.0002909935806201       0.0496464931263862
   26419.0008976993885881    2293.2580826097173485       0.0502517167388214
   26642.8710577093988832    2458.8550929195484969       0.0508623753066176
   26867.1808650420025515    2625.7899750388273787       0.0514784997137648
   27091.9284952720990987    2794.0613712017257058       0.0521001207997971
   27317.1121204135088192    2963.6679127718912241       0.0527272693595408
   27542.7299089339139755    3134.6082202535135366       0.0533599761428647
   27768.7800257697672350    3306.8809033026368525       0.0539982718544298
   27995.2606323411309859    3480.4845607383981587       0.0546421871534394
   28222.1698865666658094    3655.4177805544391049       0.0552917526533898
   28449.5059428786626086    3831.6791399304315746       0.0559469989218218
   28677.2669522380238050    4009.2672052435686965       0.0566079564800711
   28905.4510621492154314    4188.1805320803114228       0.0572746558030208
   29134.0564166754702455    4368.4176652480737175       0.0579471273188534
   29363.0811564538889797    4549.9771387871078332       0.0586254014088030
   29592.5234187103378645    4732.8574759823950444       0.0593095084069086
   29822.3813372749136761    4917.0571893756414283       0.0599994785997675
   30052.6530425969103817    5102.5747807774287139       0.0606953422262880
   30283.3366617600659083    5289.4087412793469412       0.0613971294774446
   30514.4303184978452919    5477.5575512663217523       0.0621048704960320
   30745.9321332086437906    5667.0196804288980275       0.0628185953764196
   30977.8402229711209657    5857.7935877757745402       0.0635383341643072
   31210.1527015595311241    6049.8777216462758588       0.0642641168564805
   31442.8676794589446217    6243.2705197229897749       0.0649959734005669
   31675.9832638807638432    6437.9704090444784015       0.0657339336947923
   31909.4975587780463684    6633.9758060180683970       0.0664780275877374
   32143.4086648609300028    6831.2851164327494189       0.0672282848780957
   32377.7146796121014631    7029.8967354720844014       0.0679847353144303
   32612.4136973021995800    7229.8090477273353827       0.0687474085949323
   32847.5038090054295026    7431.0204272105747805       0.0695163343671796
   33082.9831026150131947    7633.5292373678530566       0.0702915422278952
   33318.8496628587599844    7837.3338310926228587       0.0710730617227065
   33555.1015713146698545    8042.4325507390512939       0.0718609223459055
   33791.7369064264275949    8248.8237281354940933       0.0726551535402085
   34028.7537435192280100    8456.5056845981616789       0.0734557846965166
   34266.1501548152591567    8665.4767309446397121       0.0742628451536773
   34503.9242094493674813    8875.7351675077061373       0.0750763641982443
   34742.0739734849994420    9087.2792841491645959       0.0758963710642414
   34980.5975099296556436    9300.1073602737451438       0.0767228949329231
   35219.4928787507524248    9514.2176648430395289       0.0775559649325380
   35458.7581368913961342    9729.6084563896711188       0.0783956101380916
   35698.3913382863465813    9946.2779830313775165       0.0792418595711099
   35938.3905338774566189   10164.2244824853278260       0.0800947421994039
   36178.7537716299921158   10383.4461820824035385       0.0809542869368326
   36419.4790965481006424   10603.9412987816722307       0.0818205226430694
   36660.5645506909859250   10825.7080391847939609       0.0826934781233661
   36902.0081731887112255   11048.7445995507405314       0.0835731821283196
   37143.8080002581846202   11273.0491658103310328       0.0844596633536376
   37385.9620652191588306   11498.6199135811366432       0.0853529504399054
   37628.4683985100928112   11725.4550081821344065       0.0862530719723518
   37871.3250277043698588   11953.5526046487739222       0.0871600564806192
   38114.5299775261519244   12182.9108477479530848       0.0880739324385283
   38358.0812698666559299   12413.5278719931193336       0.0889947282638495
   38601.9769237999571487   12645.4018016593090579       0.0899224723180696
   38846.2149555994037655   12878.5307507986344717       0.0908571929061624
   39090.7933787535439478   13112.9128232554030546       0.0917989182763577
   39335.7102039823366795   13348.5461126817117474       0.0927476766199119
   39580.9634392534208018   13585.4287025528137747       0.0937034960708788
   39826.5510897981439484   13823.5586661828292563       0.0946664047058806
   40072.4711581279771053   14062.9340667403066618       0.0956364305438795
   40318.7216440506017534   14303.5529572640443803       0.0966136015459503
   40565.3005446863026009   14545.4133806789213850       0.0975979456150517
   40812.2058544841420371   14788.5133698117824679       0.0985894905958011
   41059.4355652383746929   15032.8509474075053731       0.0995882642742467
   41306.9876661047164816   15278.4241261449478770       0.1005942943776426
   41554.8601436167373322   15525.2309086532368383       0.1016076085742220
   41803.0509817021811614   15773.2692875280299631       0.1026282344729735
   42051.5581616994895739   16022.5372453477011732       0.1036561996234154
   42300.3796623740345240   16273.0327546898934088       0.1046915315153728
   42549.5134599347438780   16524.7537781479732075       0.1057342575787526
   42798.9575280504213879   16777.6982683474925580       0.1067844051833217
   43048.7098378663213225   17031.8641679630418366       0.1078420016384838
   43298.7683580205557519   17287.2494097347516799       0.1089070741930575
   43549.1310546607346623   17543.8519164853278198       0.1099796500350536
   43799.7958914604314486   17801.6696011367785104       0.1110597562914560
   44050.7608296357211657   18060.7003667275021144       0.1121474200279993
   44302.0238279618715751   18320.9421064292400843       0.1132426682489495
   44553.5828427898086375   18582.3927035643682757       0.1143455278968837
   44805.4358280628512148   18845.0500316228753945       0.1154560258524726
   45057.5807353332638741   19108.9119542799089686       0.1165741889342593
   45310.0155137790570734   19373.9763254130048153       0.1177000438984432
   45562.7381102204453782   19640.2409891195493401       0.1188336174386619
   45815.7464691367567866   19907.7037797343873535       0.1199749361857734
   46069.0385326830437407   20176.3625218473680434       0.1211240267076403
   46322.6122407068396569   20446.2150303210692073       0.1222809155089139
   46576.4655307649372844   20717.2591103085360373       0.1234456290308170
   46830.5963381401234074   20989.4925572711836139       0.1246181936509313
   47085.0025958580736187   21262.9131569967394171       0.1257986356829804
   47339.6822347039415035   21537.5186856171349064       0.1269869813766175
   47594.6331832394789672   21813.3069096267718123       0.1281832569172118
   47849.8533678196399705   22090.2755859005083039       0.1293874884256339
   48105.3407126096280990   22368.4224617120162293       0.1305997019580453
   48361.0931396015876089   22647.7452747520619596       0.1318199235056854
   48617.1085686317383079   22928.2417531469945970       0.1330481789946606
   48873.3849173970957054   23209.9096154770595604       0.1342844942857331
   49129.9201014724676497   23492.7465707950759679       0.1355288951741099
