                   X [km]                   Y [km]                 T [dias]
   -2666.1398639945059585   -6144.6506929099641638       0.0000000000000000
   -2532.3797525112731819   -6201.8130553594910452       0.0001556447346156
   -2397.9812523366495043   -6257.5011674091074383       0.0003113255398381
   -2262.9454507630061926   -6311.7145785384946066       0.0004670784859825
   -2127.2734402385117392   -6364.4528501577115094       0.0006229396427803
   -1990.9663183583118098   -6415.7155556108200471       0.0007789450790876
   -1854.0251878556255178   -6465.5022801792492828       0.0009351308625931
   -1716.4511565928783057   -6513.8126210853197335       0.0010915330595265
   -1578.2453375526699801   -6560.6461874952883591       0.0012481877343669
   -1439.4088488288107328   -6606.0026005226163761       0.0014051309495507
   -1299.9428136172759878   -6649.8814932310833683       0.0015623987651799
   -1159.8483602071073619   -6692.2825106376722033       0.0017200272387307
   -1019.1266219712864540   -6733.2053097154384886       0.0018780524247612
    -877.7787373575807806   -6772.6495593964173167       0.0020365103746205
    -735.8058498793033095   -6810.6149405740716247       0.0021954371361562
    -593.2091081060927991   -6847.1011461060707006       0.0023548687534236
    -449.9896656546088707   -6882.1078808167585521       0.0025148412663933
    -306.1486811791908735   -6915.6348614993821684       0.0026753907106603
    -161.6873183625006902   -6947.6818169185808074       0.0028365531171520
     -16.6067459060938241   -6978.2484878124614625       0.0029983645118369
     129.0918624790257070   -7007.3346268946961573       0.0031608609154334
     275.4073280819054617   -7034.9399988566065076       0.0033240783431178
     422.3384672011753196   -7061.0643803689426932       0.0034880528042335
     569.8840911546346888   -7085.7075600838770697       0.0036528203019994
     718.0430062888560769   -7108.8693386364911930       0.0038184168332186
     866.8140139888464546   -7130.5495286465147728       0.0039848783879873
    1016.1959106877563954   -7150.7479547198709042       0.0041522409494037
    1166.1874878765868289   -7169.4644534499975634       0.0043205404932766
    1316.7875321140006690   -7186.6988734192436823       0.0044898129878349
    1467.9948250361230748   -7202.4510752000733191       0.0046600943934358
    1619.8081433663837743   -7216.7209313561352246       0.0048314206622747
    1772.2262589254505656   -7229.5083264434479133       0.0050038277380940
    1925.2479386411393989   -7240.8131570111763722       0.0051773515558920
    2078.8719445583592460   -7250.6353316024506057       0.0053520280416327
    2233.0970338492102201   -7258.9747707553124201       0.0055278931119551
    2387.9219588229766487   -7265.8314070032020027       0.0057049826738821
    2543.3454669362058667   -7271.2051848754308594       0.0058833326245306
    2699.3663008029061530   -7275.0960608978339224       0.0060629788508209
    2855.9831982046648591   -7277.5040035929841906       0.0062439572291863
    3013.1948921008752222   -7278.4289934804492077       0.0064263036252830
    3171.0001106390022869   -7277.8710230770220733       0.0066100538936996
    3329.3975771648524642   -7275.8300968967196241       0.0067952438776674
    3488.3860102329026631   -7272.3062314507524206       0.0069819094087706
    3647.9641236166726230   -7267.2994552474092416       0.0071700863066556
    3808.1306263191381731   -7260.8098087918288002       0.0073598103787423
    3968.8842225831772339   -7252.8373445856759645       0.0075511174199334
    4130.2236119020326441   -7243.3821271266988333       0.0077440432123255
    4292.1474890298231912   -7232.4442329081548451       0.0079386235249194
    4454.6545439921628713   -7220.0237504183414785       0.0081348941133307
    4617.7434620967196679   -7206.1207801397604271       0.0083328907195006
    4781.4129239438007062   -7190.7354345482781355       0.0085326490714066
    4945.6616054371279461   -7173.8678381123281724       0.0087342048827737
    5110.4881777944892747   -7155.5181272918434843       0.0089375938527851
    5275.8913075584814578   -7135.6864505371286214       0.0091428516657941
    5441.8696566073422218   -7114.3729682877192317       0.0093500139910344
    5608.4218821657332228   -7091.5778529710296425       0.0095591164823325
    5775.5466368155948658   -7067.3012890009622424       0.0097701947778185
    5943.2425685071320913   -7041.5434727764895797       0.0099832844996383
    6111.5083205696419100   -7014.3046126799590638       0.0101984212536653
    6280.3425317225255640   -6985.5849290754422327       0.0104156406292121
    6449.7438360863943672   -6955.3846543070549160       0.0106349781987430
    6619.7108631939427141   -6923.7040326968763111       0.0108564695175856
    6790.2422380011994392   -6890.5433205431709212       0.0110801501236439
    6961.3365808985327021   -6855.9027861181621120       0.0113060555371102
    7132.9925077219295417   -6819.7827096660039388       0.0115342212601782
    7305.2086297640580597   -6782.1833834003655284       0.0117646827767552
    7477.9835537856179144   -6743.1051115021909936       0.0119974755521757
    7651.3158820265707618   -6702.5482101171828617       0.0122326350329142
    7825.2042122173597818   -6660.5130073531863673       0.0124701966462980
    7999.6471375904593515   -6616.9998432776983464       0.0127101958002215
    8174.6432468915572827   -6572.0090699149595821       0.0129526678828588
    8350.1911243910799385   -6525.5410512431672032       0.0131976482623782
    8526.2893498955654650   -6477.5961631915133694       0.0134451722866554
    8702.9364987592598482   -6428.1747936371912147       0.0136952752829882
    8880.1311418955701811   -6377.2773424022088875       0.0139479925578101
    9057.8718457886097895   -6324.9042212501517497       0.0142033593964051
    9236.1571725048415828   -6271.0558538828763631       0.0144614110626218
    9414.9856797047359578   -6215.7326759371026128       0.0147221827985885
    9594.3559206543250184   -6158.9351349808084706       0.0149857098244282
    9774.2664442370569304   -6100.6636905097211638       0.0152520273379732
    9954.7157949653883406   -6040.9188139434900222       0.0155211705144805
   10135.7025129926878435   -5979.7009886219493637       0.0157931745063475
   10317.2251341249448160   -5917.0107098011721973       0.0160680744428272
   10499.2821898326710652   -5852.8484846494748126       0.0163459054297446
   10681.8722072628042952   -5787.2148322433231442       0.0166267025492118
   10864.9937092505660985   -5720.1102835631290873       0.0169105008593452
   11048.6452143314072600   -5651.5353814889103887       0.0171973353939811
   11232.8252367530258198   -5581.4906807959614525       0.0174872411623926
   11417.5322864874251536   -5509.9767481503504314       0.0177802531490064
   11602.7648692428938375   -5436.9941621043108171       0.0180764063131195
   11788.5214864760855562   -5362.5435130915611808       0.0183757355886167
   11974.8006354042900057   -5286.6254034225948999       0.0186782758836880
   12161.6008090173418168   -5209.2404472796706614       0.0189840620805459
   12348.9204960901060986   -5130.3892707120239720       0.0192931290351433
   12536.7581811944091896   -5050.0725116306311975       0.0196055115768917
   12725.1123447115169256   -4968.2908198031473148       0.0199212445083790
   12913.9814628443709807   -4885.0448568486481236       0.0202403626050888
   13103.3640076298361237   -4800.3352962322287567       0.0205629006151179
   13293.2584469511493808   -4714.1628232595867303       0.0208888932588961
   13483.6632445503037161   -4626.5281350714794826       0.0212183752289050
   13674.5768600404408062   -4537.4319406380745932       0.0215513811893972
   13865.9977489183456782   -4446.8749607532135997       0.0218879457761160
   14057.9243625769213395   -4354.8579280285948698       0.0222281035960153
   14250.3551483177343471   -4261.3815868878264155       0.0225718892269796
   14443.2885493635676539   -4166.4466935604186801       0.0229193372175439
   14636.7230048710080155   -4070.0540160756677324       0.0232704820866145
   14830.6569499430443102   -3972.2043342564124941       0.0236253583231900
   15025.0888156418459403   -3872.8984397127755983       0.0239840003860820
   15220.0170290013338672   -3772.1371358357287136       0.0243464427036357
   15415.4400130399117188   -3669.9212377905823814       0.0247127196734529
   15611.3561867732787505   -3566.2515725104058220       0.0250828656621122
   15807.7639652272191597   -3461.1289786893621567       0.0254569150048918
   16004.6617594503659348   -3354.5543067758662801       0.0258349020054916
   16202.0479765271447832   -3246.5284189657636489       0.0262168609357553
   16399.9210195905579894   -3137.0521891953062550       0.0266028260353938
   16598.2792878352011030   -3026.1265031341240501       0.0269928315117076
   16797.1211765301450214   -2913.7522581780262954       0.0273869115393104
   16996.4450770319126605   -2799.9303634417588000       0.0277851002598525
   17196.2493767975392984   -2684.6617397516370147       0.0281874317817446
   17396.5324593976474716   -2567.9473196381272828       0.0285939401798818
   17597.2927045294127311   -2449.7880473282621097       0.0290046594953683
   17798.5284880297513155   -2330.1848787380213253       0.0294196237352412
   18000.2381818884932727   -2209.1387814646118386       0.0298388668721964
   18202.4201542614027858   -2086.6507347785950515       0.0302624228443130
   18405.0727694836059527   -1962.7217296160288242       0.0306903255547791
   18608.1943880825710949   -1837.3527685703932093       0.0311226088716173
   18811.7833667916092963   -1710.5448658845041336       0.0315593066274108
   19015.8380585630002315   -1582.2990474423215801       0.0320004526190299
   19220.3568125813690131   -1452.6163507606172516       0.0324460806073581
   19425.3379742770848679   -1321.4978249806090389       0.0328962243170196
   19630.7798853395834158   -1188.9445308594586095       0.0333509174361058
   19836.6808837307980866   -1054.9575407616944176       0.0338101936159035
   20043.0393036986497464    -919.5379386505398998       0.0342740864706218
   20249.8534757904963044    -782.6868200791318486       0.0347426295771208
   20457.1217268665859592    -644.4052921816863773       0.0352158564746398
   20664.8423801136705151    -504.6944736644895215       0.0356938006645260
   20873.0137550585350255    -363.5554947969015416       0.0361764956099632
   21081.6341675815783674    -220.9894974021894996       0.0366639747357016
   21290.7019299305029563     -76.9976348482784516       0.0371562714277865
   21500.2153507338844065      68.4189279615535781       0.0376534190332897
   21710.1727350148976257     215.2590145981297667       0.0381554508600378
   21920.5723842050101666     363.5214371158537006       0.0386624001763444
   22131.4125961577738053     513.2049960623631932       0.0391743002107401
   22342.6916651625615486     664.3084804882012122       0.0396911841517040
   22554.4078819583373843     816.8306679566254616       0.0402130851473948
   22766.5595337475169799     970.7703245534931966       0.0407400363053831
   22979.1449042098138307    1126.1262048972484990       0.0412720706923835
   23192.1622735161618039    1282.8970521490100509       0.0418092213339866
   23405.6099183425612864    1441.0815980226989268       0.0423515212143925
   23619.4861118840890413    1600.6785627953445328       0.0428990032761434
   23833.7891238688207523    1761.6866553174156707       0.0434517004198577
   24048.5172205717790348    1924.1045730232601727       0.0440096455039629
   24263.6686648291833990    2087.9310019416502655       0.0445728713444307
   24479.2417160521763435    2253.1646167064227484       0.0451414107145114
   24695.2346302411569923    2419.8040805671957969       0.0457152963444676
   24911.6456599998309684    2587.8480454001551152       0.0462945609213114
   25128.4730545492566307    2757.2951517190326740       0.0468792370885380
   25345.7150597420877602    2928.1440286859751723       0.0474693574458632
   25563.3699180767980579    3100.3932941228144955       0.0480649545489584
   25781.4358687118110538    3274.0415545220785134       0.0486660609091880
   25999.9111474797937262    3449.0874050583706776       0.0492727089933464
   26218.7939869019464822    3625.5294295996991423       0.0498849312233949
   26438.0826162022349308    3803.3662007189127507       0.0505027599761992
   26657.7752613218144688    3982.5962797052970927       0.0511262275832687
   26877.8701449332838820    4163.2182165761969372       0.0517553663304932
   27098.3654864550735510    4345.2305500886977825       0.0523902084578835
   27319.2595020660191949    4528.6318077515270488       0.0530307861593092
   27540.5504047195245221    4713.4205058369398103       0.0536771315822386
   27762.2364041581640777    4899.5951493926404510       0.0543292768274793
   27984.3157069282533485    5087.1542322540290115       0.0549872539489174
   28206.7865163941460196    5276.0962370562383512       0.0556510949532593
   28429.6470327529314090    5466.4196352465332893       0.0563208317997717
   28652.8954530489718309    5658.1228870965660462       0.0569964964000238
   28876.5299711884035787    5851.2044417149345463       0.0576781206176291
   29100.5487779538489121    6045.6627370596224864       0.0583657362679870
   29324.9500610189897998    6241.4961999507513610       0.0590593751180263
   29549.7320049632835435    6438.7032460832297147       0.0597590688859472
   29774.8927912865692633    6637.2822800395615559       0.0604648492409657
   30000.4305984238271776    6837.2316953028248463       0.0611767478030566
   30226.3436017599888146    7038.5498742696026966       0.0618947961426983
   30452.6299736445544113    7241.2351882631064655       0.0626190257806169
   30679.2878834064867988    7445.2859975463252340       0.0633494681875313
   30906.3154973689415783    7650.7006513353207993       0.0640861547838993
   31133.7109788641500927    7857.4774878125526811       0.0648291169396619
   31361.4724882483169495    8065.6148341403195445       0.0655783859739913
   31589.5981829164666124    8275.1110064743807015       0.0663339931550361
   31818.0862173172536131    8485.9643099774093571       0.0670959696996692
   32046.9347429680310597    8698.1730388328669505       0.0678643467732345
   32276.1419084698281949    8911.7354762587347068       0.0686391554892958
   32505.7058595220842108    9126.6498945213807019       0.0694204269093842
   32735.6247389380041568    9342.9145549495533487       0.0702081920427470
   32965.8966866592818405    9560.5277079485149443       0.0710024818460975
   33196.5198397713247687    9779.4875930140824494       0.0718033272233628
   33427.4923325182098779    9999.7924387469247449       0.0726107590254368
   33658.8122963178830105   10221.4404628669417434       0.0734248080499270
   33890.4778597772165085   10444.4298722275962064       0.0742455050409086
   34122.4871487071577576   10668.7588628304638405       0.0750728806886731
   34354.8382861378995585   10894.4256198398234119       0.0759069656294821
   34587.5293923340141191   11121.4283175973559992       0.0767477904453186
   34820.5585848098053248   11349.7651196368806268       0.0775953856636385
   35053.9239783442972112   11579.4341786992172274       0.0784497817571265
   35287.6236849967681337   11810.4336367471951235       0.0793110091434463
   35521.6558141217828961   12042.7616249805705593       0.0801790981849965
   35756.0184723846105044   12276.4162638512043486       0.0810540791886646
   35990.7097637765764375   12511.3956630783613946       0.0819359824055817
   36225.7277896302402951   12747.6979216637882928       0.0828248380308775
   36461.0706486349445186   12985.3211279073002515       0.0837206762034365
   36696.7364368520502467   13224.2633594221315434       0.0846235270056537
   36932.7232477304860367   13464.5226831505260634       0.0855334204631921
   37169.0291721220200998   13706.0971553793460771       0.0864503865447382
   37405.6522982967362623   13948.9848217558737815       0.0873744551617612
   37642.5907119586481713   14193.1837173034928128       0.0883056561682706
   37879.8424962609278737   14438.6918664377244568       0.0892440193605737
   38117.4057318217237480   14685.5072829821237974       0.0901895744770354
   38355.2784967394109117   14933.6279701843577641       0.0911423511978381
   38593.4588666082854616   15183.0519207323777664       0.0921023791447400
   38831.9449145340913674   15433.7771167706632696       0.0930696878808374
   39070.7347111496128491   15685.8015299165235774       0.0940443069103239
   39309.8263246302958578   15939.1231212765069358       0.0950262656782525
   39549.2178207099204883   16193.7398414629533363       0.0960155935702975
   39788.9072626960769412   16449.6496306104709220       0.0970123199125163
   40028.8927114860853180   16706.8504183927252598       0.0980164739711124
   40269.1722255824643071   16965.3401240390448947       0.0990280849521983
   40509.7438611087636673   17225.1166563513725123       0.1000471820015603
   40750.6056718252293649   17486.1779137211560737       0.1010737942044211
   40991.7557091445924016   17748.5217841463236255       0.1021079505852058
   41233.1920221478358144   18012.1461452483490575       0.1031496801073068
   41474.9126575998816406   18277.0488642895143130       0.1041990116728490
   41716.9156599655107129   18543.2277981900588202       0.1052559741224560
   41959.1990714251514873   18810.6807935455653933       0.1063205962350176
   42201.7609318906688713   19079.4056866444188927       0.1073929067274561
   42444.5992790212840191   19349.4003034852285055       0.1084729342544945
   42687.7121482394577470   19620.6624597944937705       0.1095607074084246
   42931.0975727466211538   19893.1899610441869299       0.1106562547188752
   43174.7535835394010064   20166.9806024696299573       0.1117596046525823
   43418.6782094251975650   20442.0321690872151521       0.1128707856131576
   43662.8694770383735886   20718.3424357123585651       0.1139898259408592
   43907.3254108561523026   20995.9091669775625633       0.1151167539123632
   44152.0440332145954017   21274.7301173504019971       0.1162515977405337
   44397.0233643245519488   21554.8030311517795781       0.1173943855741944
   44642.2614222877018619   21836.1256425740939449       0.1185451454979028
   44887.7562231127376435   22118.6956756996332842       0.1197039055317208
   45133.5057807311313809   22402.5108445190089697       0.1208706936309888
   45379.5081070134692709   22687.5688529495055263       0.1220455376861003
   45625.7612117853568634   22973.8673948538234981       0.1232284655222751
   45872.2631028436153429   23261.4041540587058989       0.1244195048993349
   46119.0117859723468428   23550.1768043735355604       0.1256186835114784
   46366.0052649591088993   23840.1830096093253815       0.1268260289870576
   46613.2415416110816295   24131.4204235975885240       0.1280415688883535
   46860.7186157711112173   24423.8866902091867814       0.1292653307113547
   47108.4344853340226109   24717.5794433735354687       0.1304973418855329
   47356.3871462628012523   25012.4963070976882591       0.1317376297736224
   47604.5745926047020475   25308.6348954856002820       0.1329862216713986
   47852.9948165076639270   25605.9928127573766687       0.1342431448074567
   48101.6458082362951245   25904.5676532686229621       0.1355084263429915
   48350.5255561883604969   26204.3570015300138039       0.1367820933715783
   48599.6320469110141858   26505.3584322268034157       0.1380641729189527
   48848.9632651169522433   26807.5695102383542689       0.1393546919427930
