                   X [km]                   Y [km]                 T [dias]
    -336.9790843729796848   -1171.9276259103314715       0.0000000000000000
    -326.7616870198816628   -1174.8401276241927462       0.0001058224534339
    -316.5308230746622939   -1177.7056316540747503       0.0002116486972737
    -306.2865362587945128   -1180.5241257542822950       0.0003174825219093
    -296.0288703511118342   -1183.2955978800146113       0.0004233277176980
    -285.7578691876255448   -1186.0200361874215105       0.0005291880749486
    -275.4735766613324586   -1188.6974290336465856       0.0006350673839049
    -265.1760367220311423   -1191.3277649768838273       0.0007409694347302
    -254.8652933761338772   -1193.9110327764283284       0.0008468980174901
    -244.5413906864751539   -1196.4472213927124358       0.0009528569221370
    -234.2043727721272717   -1198.9363199873669146       0.0010588499384938
    -223.8542838082108233   -1201.3783179232614202       0.0011648808562377
    -213.4911680257033311   -1203.7732047645436069       0.0012709534648835
    -203.1150697112541650   -1206.1209702766952887       0.0013770715537684
    -192.7260332069930655   -1208.4216044265720029       0.0014832389120348
    -182.3241029103401729   -1210.6750973824380253       0.0015894593286148
    -171.9093232738175061   -1212.8814395140207125       0.0016957365922136
    -161.4817388048589066   -1215.0406213925430166       0.0018020744912936
    -151.0413940656189880   -1217.1526337907682773       0.0019084768140581
    -140.5883336727835058   -1219.2174676830377393       0.0020149473484347
    -130.1226022973783927   -1221.2351142453071589       0.0021214898820601
    -119.6442446645789488   -1223.2055648551904596       0.0022281082022629
    -109.1533055535182086   -1225.1288110919888368       0.0023348060960479
     -98.6498297970966718   -1227.0048447367360041       0.0024415873500799
     -88.1338622817893622   -1228.8336577722222955       0.0025484557506675
     -77.6054479474553744   -1230.6152423830401403       0.0026554150837467
     -67.0646317871446200   -1232.3495909556083916       0.0027624691348652
     -56.5114588469059314   -1234.0366960782073420       0.0028696216891655
     -45.9459742255952577   -1235.6765505410176047       0.0029768765313696
     -35.3682230746822626   -1237.2691473361387580       0.0030842374457621
     -24.7782505980565233   -1238.8144796576273166       0.0031917082161744
     -14.1761020518367733   -1240.3125409015274272       0.0032992926259683
      -3.5618227441749641   -1241.7633246658892858       0.0034069944580201
       7.0645419649357075   -1243.1668247508089280       0.0035148174947043
      17.7029466638554815   -1244.5230351584439177       0.0036227655178774
      28.3533458894922248   -1245.8319500930472259       0.0037308423088618
      39.0156941274946476   -1247.0935639609872396       0.0038390516484295
      49.6899458124475402   -1248.3078713707689076       0.0039473973167861
      60.3760553280670251   -1249.4748671330678462       0.0040558830935548
      71.0739770073946460   -1250.5945462607421632       0.0041645127577597
      81.7836651329925246   -1251.6669039688538305       0.0042732900878103
      92.5050739371400397   -1252.6919356746989251       0.0043822188614848
     103.2381576020265044   -1253.6696369978137682       0.0044913028559145
     113.9828702599505164   -1254.6000037600040287       0.0046005458475672
     124.7391659935140353   -1255.4830319853608671       0.0047099516122311
     135.5069988358181945   -1256.3187179002725316       0.0048195239249990
     146.2863227706612861   -1257.1070579334457307       0.0049292665602519
     157.0770917327338907   -1257.8480487159190488       0.0050391832916429
     167.8792596078166639   -1258.5416870810761338       0.0051492778920811
     178.6927802329769008   -1259.1879700646638867       0.0052595541337155
     189.5176073967667776   -1259.7868949047983733       0.0053700157879189
     200.3536948394197168   -1260.3384590419827873       0.0054806666252716
     211.2009962530476344   -1260.8426601191140435       0.0055915104155456
     222.0594652818412555   -1261.2994959814957383       0.0057025509276883
     232.9290555222655712   -1261.7089646768431521       0.0058137919298062
     243.8097205232593296   -1262.0710644553000748       0.0059252371891492
     254.7014137864335055   -1262.3857937694338034       0.0060368904720944
     265.6040887662703653   -1262.6531512742549239       0.0061487555441296
     276.5176988703207712   -1262.8731358272141279       0.0062608361698378
     287.4421974594060885   -1263.0457464882092609       0.0063731361128807
     298.3775378478147218   -1263.1709825195925987       0.0064856591359829
     309.3236733035032557   -1263.2488433861667545       0.0065984090009155
     320.2805570482955204   -1263.2793287551980939       0.0067113894684802
     331.2481422580819412   -1263.2624384964021829       0.0068246042984932
     342.2263820630222426   -1263.1981726819658434       0.0069380572497695
     353.2152295477418988   -1263.0865315865228240       0.0070517520801060
     364.2146377515359177   -1262.9275156871728996       0.0071656925462662
     375.2245596685671671   -1262.7211256634677738       0.0072798824039639
     386.2449482480691358   -1262.4673623974126713       0.0073943254078470
     397.2757563945457946   -1262.1662269734613346       0.0075090253114817
     408.3169369679736747   -1261.8177206785132967       0.0076239858673362
     419.3684427840022977   -1261.4218450019068314       0.0077392108267650
     430.4302266141550604   -1260.9786016354082676       0.0078547039399925
     441.5022411860368265   -1260.4879924732174459       0.0079704689560972
     452.5844391835258875   -1259.9500196119413431       0.0080865096229957
     463.6767732469862153   -1259.3646853506054413       0.0082028296874265
     474.7791959734623788   -1258.7319921906250784       0.0083194328949342
     485.8916599168871926   -1258.0519428358077221       0.0084363229898533
     497.0141175882818629   -1257.3245401923372810       0.0085535037152923
     508.1465214559593164   -1256.5497873687584161       0.0086709788131178
     519.2888239457274722   -1255.7276876759699462       0.0087887520239383
     530.4409774410920591   -1254.8582446272009747       0.0089068270870884
     541.6029342834629006   -1253.9414619380097520       0.0090252077406126
     552.7746467723526393   -1252.9773435262543444       0.0091438977212496
     563.9560671655840451   -1251.9658935120819478       0.0092629007644161
     575.1471476794946511   -1250.9071162179125167       0.0093822206041910
     586.3478404891382070   -1249.8010161684198920       0.0095018609732994
     597.5580977284910205   -1248.6475980905067900       0.0096218256030964
     608.7778714906548885   -1247.4468669132907053       0.0097421182235518
     620.0071138280646892   -1246.1988277680848114       0.0098627425632332
     631.2457767526902899   -1244.9034859883663557       0.0099837023492911
     642.4938122362427748   -1243.5608471097632446       0.0101050013074422
     653.7511722103797638   -1242.1709168700274404       0.0102266431619537
     665.0178085669109578   -1240.7337012090072221       0.0103486316356277
     676.2936731580033438   -1239.2492062686274039       0.0104709704497847
     687.5787177963881049   -1237.7174383928577299       0.0105936633242484
     698.8728942555637786   -1236.1384041276908192       0.0107167139773291
     710.1761542700063501   -1234.5121102211096513       0.0108401261258083
     721.4884495353713874   -1232.8385636230621003       0.0109639034849225
     732.8097317087025431   -1231.1177714854272836       0.0110880497683478
     744.1399524086407382   -1229.3497411619919149       0.0112125686881834
     755.4790632156250467   -1227.5344802084098319       0.0113374639549361
     766.8270156721038120   -1225.6719963821774400       0.0114627392775044
     778.1837612827414432   -1223.7622976425968773       0.0115883983631628
     789.5492515146238475   -1221.8053921507425912       0.0117144449175456
     800.9234377974676136   -1219.8012882694256405       0.0118408826446312
     812.3062715238256715   -1217.7499945631584524       0.0119677152467266
     823.6977040492981814   -1215.6515197981213987       0.0120949464244511
     835.0976866927377387   -1213.5058729421209591       0.0122225798767208
     846.5061707364563972   -1211.3130631645503854       0.0123506193007324
     857.9231074264374683   -1209.0730998363576418       0.0124790683919481
     869.3484479725424308   -1206.7859925299985662       0.0126079308440792
     880.7821435487165900   -1204.4517510193966245       0.0127372103490705
     892.2241452932032644   -1202.0703852799072138       0.0128669105970845
     903.6744043087459204   -1199.6419054882646833       0.0129970352764857
     915.1328716628036091   -1197.1663220225493660       0.0131275880738248
     926.5994983877560571   -1194.6436454621375560       0.0132585726738230
     938.0742354811131918   -1192.0738865876553518       0.0133899927593561
     949.5570339057275078   -1189.4570563809365922       0.0135218520114388
     961.0478445899987037   -1186.7931660249726065       0.0136541541092092
     972.5466184280891184   -1184.0822269038667400       0.0137869027299129
     984.0533062801280266   -1181.3242506027847867       0.0139201015488871
     995.5678589724263929   -1178.5192489079040570       0.0140537542395453
    1007.0902272976834411   -1175.6672338063651750       0.0141878644733611
    1018.6203620151986797   -1172.7682174862195552       0.0143224359198532
    1030.1582138510827917   -1169.8222123363782430       0.0144574722465690
    1041.7037334984674999   -1166.8292309465596190       0.0145929771190693
    1053.2568716177133865   -1163.7892861072302821       0.0147289542009126
    1064.8175788366283996   -1160.7023908095600291       0.0148654071536396
    1076.3858057506686237   -1157.5685582453559164       0.0150023396367569
    1087.9615029231599692   -1154.3878018070145117       0.0151397553077224
    1099.5446208855023542   -1151.1601350874607306       0.0152776578219287
    1111.1351101373813890   -1147.8855718800868999       0.0154160508326880
    1122.7329211469809707   -1144.5641261786979612       0.0155549379912164
    1134.3380043512015618   -1141.1958121774546271       0.0156943229466183
    1145.9503101558586877   -1137.7806442708035775       0.0158342093458707
    1157.5697889359073542   -1134.3186370534249363       0.0159746008338078
    1169.1963910356455472   -1130.8098053201615585       0.0161155010531050
    1180.8300667689316015   -1127.2541640659646873       0.0162569136442639
    1192.4707664193945220   -1123.6517284858239236       0.0163988422455967
    1204.1184402406458958   -1120.0025139747021967       0.0165412904932098
    1215.7730384564961241   -1116.3065361274764200       0.0166842620209896
    1227.4345112611592867   -1112.5638107388595017       0.0168277604605858
    1239.1028088194739212   -1108.7743538033430468       0.0169717894413966
    1250.7778812671153901   -1104.9381815151259616       0.0171163525905526
    1262.4596787108032458   -1101.0553102680441953       0.0172614535329021
    1274.1481512285172357   -1097.1257566554997993       0.0174070958909949
    1285.8432488697148983   -1093.1495374703918060       0.0175532832850669
    1297.5449216555375642   -1089.1266697050448329       0.0177000193330252
    1309.2531195790311358   -1085.0571705511345044       0.0178473076504319
    1320.9677926053532246   -1080.9410573996167386       0.0179951518504892
    1332.6888906719932493   -1076.7783478406508948       0.0181435555440235
    1344.4163636889807094   -1072.5690596635236034       0.0182925223394704
    1356.1501615391034647   -1068.3132108565782801       0.0184420558428591
    1367.8902340781196472   -1064.0108196071321345       0.0185921596577969
    1379.6365311349732110   -1059.6619043014022736       0.0187428373854539
    1391.3890025120053906   -1055.2664835244240749       0.0188940926245475
    1403.1475979851745706   -1050.8245760599745608       0.0190459289713274
    1414.9122673042675160   -1046.3362008904928189       0.0191983500195597
    1426.6829601931117395   -1041.8013771969926893       0.0193513593605117
    1438.4596263497955988   -1037.2201243589895512       0.0195049605829368
    1450.2422154468822555   -1032.5924619544116467       0.0196591572730592
    1462.0306771316163577   -1027.9184097595159528       0.0198139530145579
    1473.8249610261559610   -1023.1979877488096236       0.0199693513885522
    1485.6250167277703440   -1018.4312160949565396       0.0201253559735860
    1497.4307938090660173   -1013.6181151686989779       0.0202819703456125
    1509.2422418181986359   -1008.7587055387641612       0.0204391980779791
    1521.0593102790901412   -1003.8530079717785384       0.0205970427414118
    1532.8819486916415826    -998.9010434321825187       0.0207555079040003
    1544.7101065319525333    -993.9028330821349755       0.0209145971311827
    1556.5437332525364127    -988.8583982814280944       0.0210743139857300
    1568.3827782825312624    -983.7677605873902849       0.0212346620277311
    1580.2271910279250733    -978.6309417548010288       0.0213956448145775
    1592.0769208717636047    -973.4479637357928823       0.0215572659009481
    1603.9319171743727566    -968.2188486797590485       0.0217195288387943
    1615.7921292735670704    -962.9436189332579943       0.0218824371773240
    1627.6575064848782404    -957.6222970399196583       0.0220459944629877
    1639.5279981017613409    -952.2549057403501820       0.0222102042394620
    1651.4035533958133328    -946.8414679720283402       0.0223750700476354
    1663.2841216169970266    -941.3820068692156156       0.0225405954255929
    1675.1696519938464007    -935.8765457628517197       0.0227067839086007
    1687.0600937336935203    -930.3251081804572777       0.0228736390290913
    1698.9553960228809046    -924.7277178460336700       0.0230411643166482
    1710.8555080269795781    -919.0843986799600316       0.0232093632979911
    1722.7603788910059848    -913.3951747988908210       0.0233782394969607
    1734.6699577396404948    -907.6600705156563436       0.0235477964345035
    1746.5841936774436363    -901.8791103391537263       0.0237180376286569
    1758.5030357890711912    -896.0523189742458499       0.0238889665945342
    1770.4264331395008867    -890.1797213216549380       0.0240605868443095
    1782.3543347742368042    -884.2613424778544413       0.0242329018872026
    1794.2866897195374349    -878.2972077349645588       0.0244059152294642
    1806.2234469826312306    -872.2873425806423029       0.0245796303743609
    1818.1645555519307891    -866.2317726979734971       0.0247540508221601
    1830.1099643972536342    -860.1305239653607941       0.0249291800701150
    1842.0596224700418588    -853.9836224564165832       0.0251050216124497
    1854.0134787035792669    -847.7910944398503261       0.0252815789403447
    1865.9714820132037403    -841.5529663793533928       0.0254588555419212
    1877.9335812965377954    -835.2692649334911721       0.0256368549022267
    1889.8997254336929927    -828.9400169555839284       0.0258155805032201
    1901.8698632875011754    -822.5652494935964114       0.0259950358237567
    1913.8439437037231983    -816.1449897900195083       0.0261752243395732
    1925.8219155112719818    -809.6792652817533735       0.0263561495232731
    1937.8037275224317000    -803.1681035999939695       0.0265378148443118
    1949.7893285330785602    -796.6115325701117627       0.0267202237689817
    1961.7786673228865766    -790.0095802115306469       0.0269033797603974
    1973.7716926555688133    -783.3622747376159623       0.0270872862784810
    1985.7683532790751997    -776.6696445555451191       0.0272719467799470
    1997.7685979258235420    -769.9317182661916377       0.0274573647182881
    2009.7723753129141642    -763.1485246640011155       0.0276435435437598
    2021.7796341423522790    -756.3200927368686735       0.0278304867033662
    2033.7903231012619472    -749.4464516660146955       0.0280181976408449
    2045.8043908621148148    -742.5276308258606832       0.0282066797966524
    2057.8217860829336132    -735.5636597839019259       0.0283959366079494
    2069.8424574075315832    -728.5545683005848332       0.0285859715085862
    2081.8663534657130185    -721.5003863291759671       0.0287767879290878
    2093.8934228735074612    -714.4011440156356230       0.0289683892966397
    2105.9236142333793396    -707.2568716984883395       0.0291607790350724
    2117.9568761344530685    -700.0675999086956836       0.0293539605648479
    2129.9931571527299639    -692.8333593695223271       0.0295479373030442
    2142.0324058513137970    -685.5541809964082631       0.0297427126633409
    2154.0745707806167957    -678.2300958968307896       0.0299382900560048
    2166.1196004785979312    -670.8611353701789994       0.0301346728878752
    2178.1674434709707384    -663.4473309076179248       0.0303318645623495
    2190.2180482714220489    -655.9887141919469968       0.0305298684793684
    2202.2713633818407288    -648.4853170974760133       0.0307286880354014
    2214.3273372925327749    -640.9371716898792783       0.0309283266234326
    2226.3859184824409567    -633.3443102260654314       0.0311287876329458
    2238.4470554193644602    -625.7067651540338602       0.0313300744499102
    2250.5106965601844422    -618.0245691127407781       0.0315321904567660
    2262.5767903510741235    -610.2977549319575701       0.0317351390324100
    2274.6452852277325292    -602.5263556321294800       0.0319389235521806
    2286.7161296155932177    -594.7104044242365717       0.0321435473878443
    2298.7892719300493809    -586.8499347096516203       0.0323490139075803
    2310.8646605766739413    -578.9449800799945933       0.0325553264759672
    2322.9422439514437428    -570.9955743169937250       0.0327624884539674
    2335.0219704409510086    -563.0017513923372690       0.0329705031989138
    2347.1037884226352617    -554.9635454675297979       0.0331793740644947
    2359.1876462649906898    -546.8809908937455475       0.0333891044007401
    2371.2734923278035239    -538.7541222116827839       0.0335996975540069
    2383.3612749623534910    -530.5829741514157831       0.0338111568669646
    2395.4509425116525563    -522.3675816322471519       0.0340234856785814
    2407.5424433106527431    -514.1079797625552601       0.0342366873241097
    2419.6357256864721421    -505.8042038396478119       0.0344507651350717
    2431.7307379586181924    -497.4562893496090510       0.0346657224392455
    2443.8274284392032314    -489.0642719671513987       0.0348815625606506
    2455.9257454331659574    -480.6281875554583394       0.0350982888195337
    2468.0256372385001669    -472.1480721660315112       0.0353159045323549
    2480.1270521464634840    -463.6239620385427997       0.0355344130117729
    2492.2299384418074624    -455.0558936006711406       0.0357538175666313
    2504.3342444029958642    -446.4439034679537599       0.0359741215019443
    2516.4399183024252125    -437.7880284436238298       0.0361953281188829
    2528.5469084066435244    -429.0883055184581849       0.0364174407147599
    2540.6551629765826874    -420.3447718706167393       0.0366404625830169
    2552.7646302677580934    -411.5574648654838938       0.0368643970132097
    2564.8752585305119283    -402.7264220555072711       0.0370892472909941
    2576.9869960102200821    -393.8516811800423056       0.0373150166981121
    2589.0997909475258894    -384.9332801651849536       0.0375417085123778
    2601.2135915785429461    -375.9712571236132135       0.0377693260076635
