                   X [km]                   Y [km]                 T [dias]
    -775.9167215317237378   -1011.1668348906731580       0.0000000000000000
    -767.6538295048546843   -1017.4780413282727523       0.0001078715811882
    -759.3626827048020687   -1023.7523168010310428       0.0002157464054288
    -751.0433343512803503   -1029.9896210352465005       0.0003236277157532
    -742.6958378450262899   -1036.1899139945367097       0.0004315187551515
    -734.3202467674547052   -1042.3531558800839321       0.0005394227665510
    -725.9166148803169563   -1048.4793071308984054       0.0006473429927960
    -717.4849961253537458   -1054.5683284240710691       0.0007552826766265
    -709.0254446239484878   -1060.6201806750223113       0.0008632450606578
    -700.5380146767827227   -1066.6348250377579916       0.0009712333873593
    -692.0227607634860760   -1072.6122229051152317       0.0010792508990342
    -683.4797375422839423   -1078.5523359090100257       0.0011873008377979
    -674.9089998496514227   -1084.4551259206857594       0.0012953864455580
    -666.3106026999578262   -1090.3205550509583190       0.0014035109639931
    -657.6846012851146952   -1096.1485856504548337       0.0015116776345320
    -649.0310509742217846   -1101.9391803098603759       0.0016198896983328
    -640.3500073132119041   -1107.6923018601557942       0.0017281503962624
    -631.6415260244921228   -1113.4079133728564557       0.0018364629688755
    -622.9056630065894069   -1119.0859781602500789       0.0019448306563938
    -614.1424743337896643   -1124.7264597756300191       0.0020532566986851
    -605.3520162557783806   -1130.3293220135319643       0.0021617443352430
    -596.5343451972800040   -1135.8945289099649472       0.0022702968051652
    -587.6895177576942615   -1141.4220447426421288       0.0023789173471336
    -578.8175907107347484   -1146.9118340312111286       0.0024876091993932
    -569.9186210040641072   -1152.3638615374802612       0.0025963755997311
    -560.9926657589257957   -1157.7780922656447729       0.0027052197854559
    -552.0397822697833590   -1163.1544914625146703       0.0028141449933769
    -543.0600280039452628   -1168.4930246177314075       0.0029231544597835
    -534.0534606012014365   -1173.7936574639966238       0.0030322514204240
    -525.0201378734520858   -1179.0563559772874669       0.0031414391104853
    -515.9601178043355958   -1184.2810863770760079       0.0032507207645719
    -506.8734585488564335   -1189.4678151265475208       0.0033600996166849
    -497.7602184330127102   -1194.6165089328135309       0.0034695789002018
    -488.6204559534216969   -1199.7271347471266836       0.0035791618478553
    -479.4542297769431229   -1204.7996597650922013       0.0036888516917129
    -470.2615987403042368   -1209.8340514268809329       0.0037986516631556
    -461.0426218497213426   -1214.8302774174339902       0.0039085649928577
    -451.7973582805208252   -1219.7883056666746597       0.0040185949107659
    -442.5258673767596633   -1224.7081043497105384       0.0041287446460785
    -433.2282086508444081   -1229.5896418870411253       0.0042390174272247
    -423.9044417831496503   -1234.4328869447572288       0.0043494164818439
    -414.5546266216333606   -1239.2378084347442382       0.0044599450367649
    -405.1788231814559254   -1244.0043755148833498       0.0045706063179853
    -395.7770916445904277   -1248.7325575892436973       0.0046814035506509
    -386.3494923594402053   -1253.4223243082838053       0.0047923399590346
    -376.8960858404501550   -1258.0736455690469029       0.0049034187665161
    -367.4169327677175261   -1262.6864915153500988       0.0050146431955609
    -357.9120939866035087   -1267.2608325379783309       0.0051260164677000
    -348.3816305073425497   -1271.7966392748753606       0.0052375418035090
    -338.8256035046496208   -1276.2938826113304458       0.0053492224225871
    -329.2440743173292503   -1280.7525336801656977       0.0054610615435370
    -319.6371044478800627   -1285.1725638619229812       0.0055730623839441
    -310.0047555621018773   -1289.5539447850428587       0.0056852281603555
    -300.3470894886982592   -1293.8966483260558107       0.0057975620882599
    -290.6641682188798086   -1298.2006466097500379       0.0059100673820662
    -280.9560539059677922   -1302.4659120093638194       0.0060227472550838
    -271.2228088649939650   -1306.6924171467528595       0.0061356049195012
    -261.4644955722998247   -1310.8801348925696857       0.0062486435863659
    -251.6811766651370021   -1315.0290383664389537       0.0063618664655633
    -241.8729149412646109   -1319.1391009371270684       0.0064752767657966
    -232.0397733585462845   -1323.2102962227172611       0.0065888776945660
    -222.1818150345465313   -1327.2425980907742087       0.0067026724581478
    -212.2991032461240479   -1331.2359806585147908       0.0068166642615743
    -202.3917014290269094   -1335.1904182929736180       0.0069308563086130
    -192.4596731774855414   -1339.1058856111669684       0.0070452518017462
    -182.5030822438033340   -1342.9823574802571784       0.0071598539421501
    -172.5219925379488757   -1346.8198090177102131       0.0072746659296744
    -162.5164681271443214   -1350.6182155914623308       0.0073896909628222
    -152.4865732354548129   -1354.3775528200696954       0.0075049322387286
    -142.4323722433758803   -1358.0977965728723120       0.0076203929531411
    -132.3539296874222373   -1361.7789229701447766       0.0077360763003984
    -122.2513102597096122   -1365.4209083832488432       0.0078519854734102
    -112.1245788075430454   -1369.0237294347898569       0.0079681236636367
    -101.9738003329992040   -1372.5873629987613640       0.0080844940610681
     -91.7990399925081988   -1376.1117862006963151       0.0082010998542039
     -81.6003630964375901   -1379.5969764178153127       0.0083179442300329
     -71.3778351086718743   -1383.0429112791666739       0.0084350303740122
     -61.1315216461915014   -1386.4495686657760416       0.0085523614700474
     -50.8614884786532429   -1389.8169267107857650       0.0086699407004713
     -40.5678015279672124   -1393.1449637995942794       0.0087877712460243
     -30.2505268678738339   -1396.4336585699941224       0.0089058562858336
     -19.9097307235200631   -1399.6829899123126779       0.0090241989973927
      -9.5454794710332767   -1402.8929369695476908       0.0091428025565413
       0.8421603629030591   -1406.0634791374939141       0.0092616701374447
      11.2531221014789722   -1409.1945960648861274       0.0093808049125734
      21.6873389181829168   -1412.2862676535194169       0.0095002100526829
      32.1447438372330936   -1415.3384740583865096       0.0096198887267933
      42.6252697340061388   -1418.3511956877998728       0.0097398441021689
      53.1288493354679616   -1421.3244132035206349       0.0098600793442977
      63.6554152206074662   -1424.2581075208775019       0.0099805976168716
      74.2048998208661885   -1427.1522598088986342       0.0101014020817656
      84.7772354205745700   -1430.0068514904244239       0.0102224958990176
      95.3723541573847200   -1432.8218642422277753       0.0103438822268083
     105.9901880227087219   -1435.5972799951341585       0.0104655642214408
     116.6306688621511682   -1438.3330809341380245       0.0105875450373203
     127.2937283759507494   -1441.0292494985155827       0.0107098278269340
     137.9792981194155459   -1443.6857683819355316       0.0108324157408307
     148.6873095033647019   -1446.3026205325741103       0.0109553119276007
     159.4176937945671568   -1448.8797891532228732       0.0110785195338554
     170.1703821161825090   -1451.4172577013957834       0.0112020417042075
     180.9453054482045502   -1453.9150098894356233       0.0113258815812502
     191.7423946279043321   -1456.3730296846206329       0.0114500423055378
     202.5615803502719814   -1458.7913013092645542       0.0115745270155649
     213.4027931684644557   -1461.1698092408187222       0.0116993388477463
     224.2659634942484388   -1463.5085382119716542       0.0118244809363975
     235.1510215984499723   -1465.8074732107502314       0.0119499564137137
     246.0578976113989143   -1468.0665994806099661       0.0120757684097504
     256.9865215233800768   -1470.2859025205366379       0.0122019200524029
     267.9368231850818916   -1472.4653680851315585       0.0123284144673864
     278.9087323080437386   -1474.6049821847091152       0.0124552547782159
     289.9021784651139910   -1476.7047310853856743       0.0125824441061860
     300.9170910908944734   -1478.7646013091668920       0.0127099855703514
     311.9533994821972556   -1480.7845796340311608       0.0128378822875059
     323.0110327984991159   -1482.7646530940216962       0.0129661373721636
     334.0899200623944694   -1484.7048089793215695       0.0130947539365377
     345.1899901600513658   -1486.6050348363410194       0.0132237350905217
     356.3111718416687950   -1488.4653184677963509       0.0133530839416683
     367.4533937219324002   -1490.2856479327845136       0.0134828035951704
     378.6165842804750241   -1492.0660115468674576       0.0136128971538406
     389.8006718623337292   -1493.8063978821371620       0.0137433677180915
     401.0055846784104574   -1495.5067957672974899       0.0138742183859157
     412.2312508059338256   -1497.1671942877314905       0.0140054522528660
     423.4775981889176819   -1498.7875827855727948       0.0141370724120355
     434.7445546386283581   -1500.3679508597738277       0.0142690819540377
     446.0320478340436239   -1501.9082883661715186       0.0144014839669869
     457.3400053223200530   -1503.4085854175559689       0.0145342815364780
     468.6683545192549332   -1504.8688323837279768       0.0146674777455668
     480.0170227097563611   -1506.2890198915665678       0.0148010756747505
     491.3859370483067437   -1507.6691388250869750       0.0149350784019475
     502.7750245594299940   -1509.0091803254977094       0.0150694890024782
     514.1842121381622519   -1510.3091357912592230       0.0152043105490444
     525.6134265505208987   -1511.5689968781387051       0.0153395461117107
     537.0625944339730040   -1512.7887554992644255       0.0154751987578836
     548.5316422979070694   -1513.9684038251753009       0.0156112715522928
     560.0204965241050559   -1515.1079342838729644       0.0157477675569711
     571.5290833672141844   -1516.2073395608711053       0.0158846898312345
     583.0573289552212373   -1517.2666125992395791       0.0160220414316631
     594.6051592899267462   -1518.2857465996544306       0.0161598254120811
     606.1725002474177018   -1519.2647350204347276       0.0162980448235373
     617.7592775785470849   -1520.2035715775912195       0.0164367027142856
     629.3654169094075996   -1521.1022502448633986       0.0165758021297654
     640.9908437418093854   -1521.9607652537570175       0.0167153461125819
     652.6354834537609122   -1522.7791110935852430       0.0168553377024867
     664.2992612999431685   -1523.5572825115002615       0.0169957799363583
     675.9821024121939672   -1524.2952745125278398       0.0171366758481826
     687.6839317999858849   -1524.9930823596000664       0.0172780284690333
     699.4046743509089765   -1525.6507015735858204       0.0174198408270528
     711.1442548311514429   -1526.2681279333198745       0.0175621159474322
     722.9025978859840507   -1526.8453574756279068       0.0177048568523925
     734.6796280402438697   -1527.3823864953542397       0.0178480665611645
     746.4752696988166463   -1527.8792115453843508       0.0179917480899702
     758.2894471471248607   -1528.3358294366669270       0.0181359044520029
     770.1220845516110103   -1528.7522372382368303       0.0182805386574080
     781.9731059602263485   -1529.1284322772298765       0.0184256537132636
     793.8424353029179201   -1529.4644121389019347       0.0185712526235615
     805.7299963921176413   -1529.7601746666464351       0.0187173383891876
     817.6357129232287662   -1530.0157179620039187       0.0188639140079026
     829.5595084751161039   -1530.2310403846774989       0.0190109824743232
     841.5013065106022623   -1530.4061405525433202       0.0191585467799024
     853.4610303769499069   -1530.5410173416573798       0.0193066099129104
     865.4386033063610739   -1530.6356698862648500       0.0194551748584156
     877.4339484164651140   -1530.6900975788032611       0.0196042445982654
     889.4469887108156172   -1530.7043000699100048       0.0197538221110669
     901.4776470793839280   -1530.6782772684211977       0.0199039103721678
     913.5258462990510679   -1530.6120293413723630       0.0200545123536376
     925.5915090341077303   -1530.5055567140009316       0.0202056310242482
     937.6745578367476810   -1530.3588600697396487       0.0203572693494548
     949.7749151475670715   -1530.1719403502136174       0.0205094302913773
     961.8925032960597719   -1529.9447987552332506       0.0206621168087806
     974.0272445011188438   -1529.6774367427910875       0.0208153318570564
     986.1790608715323287   -1529.3698560290454225       0.0209690783882037
     998.3478744064872217   -1529.0220585883134845       0.0211233593508098
    1010.5336069960673058   -1528.6340466530596132       0.0212781776900318
    1022.7361804217538293   -1528.2058227138770690       0.0214335363475773
    1034.9555163569314118   -1527.7373895194757552       0.0215894382616858
    1047.1915363673865613   -1527.2287500766633457       0.0217458863671097
    1059.4441619118158542   -1526.6799076503264132       0.0219028835950953
    1071.7133143423229740   -1526.0908657634067822       0.0220604328733644
    1083.9989149049313255   -1525.4616281968822022       0.0222185371260951
    1096.3008847400847117   -1524.7921989897411095       0.0223771992739032
    1108.6191448831555135   -1524.0825824389557965       0.0225364222338235
    1120.9536162649494599   -1523.3327830994562646       0.0226962089192911
    1133.3042197122165362   -1522.5428057841002101       0.0228565622401225
    1145.6708759481555262   -1521.7126555636409648       0.0230174851024971
    1158.0535055929256032   -1520.8423377666972556       0.0231789804089385
    1170.4520291641545100   -1519.9318579797186430       0.0233410510582957
    1182.8663670774492402   -1518.9812220469457316       0.0235036999457250
    1195.2964396469071744   -1517.9904360703799284       0.0236669299626708
    1207.7421670856256242   -1516.9595064097372870       0.0238307439968473
    1220.2034695062175160   -1515.8884396824116720       0.0239951449322201
    1232.6802669213209356   -1514.7772427634313317       0.0241601356489876
    1245.1724792441127647   -1513.6259227854131950       0.0243257190235623
    1257.6800262888264115   -1512.4344871385210354       0.0244918979285526
    1270.2028277712611271   -1511.2029434704124924       0.0246586752327444
    1282.7408033093024642   -1509.9312996861956435       0.0248260538010822
    1295.2938724234343226   -1508.6195639483748892       0.0249940364946516
    1307.8619545372564517   -1507.2677446767966103       0.0251626261706599
    1320.4449689780039989   -1505.8758505486032391       0.0253318256824186
    1333.0428349770638761   -1504.4438904981670930       0.0255016378793245
    1345.6554716704881685   -1502.9718737170396707       0.0256720656068419
    1358.2827980995250527   -1501.4598096538927621       0.0258431117064839
    1370.9247332111265223   -1499.9077080144541014       0.0260147790157945
    1383.5811958584754393   -1498.3155787614468863       0.0261870703683301
    1396.2521048015028100   -1496.6834321145274771       0.0263599885936416
    1408.9373787074123356   -1495.0112785502174120       0.0265335365172560
    1421.6369361512004161   -1493.2991288018365594       0.0267077169606584
    1434.3506956161800190   -1491.5469938594355881       0.0268825327412738
    1447.0785754945029566   -1489.7548849697247988       0.0270579866724490
    1459.8204940876826186   -1487.9228136360004555       0.0272340815634348
    1472.5763696071228424   -1486.0507916180727079       0.0274108202193676
    1485.3461201746379174   -1484.1388309321903307       0.0275882054412517
    1498.1296638229794098   -1482.1869438509615975       0.0277662400259409
    1510.9269184963650332   -1480.1951429032781107       0.0279449267661211
    1523.7378020510027454   -1478.1634408742322648       0.0281242684502922
    1536.5622322556180279   -1476.0918508050353921       0.0283042678627497
    1549.4001267919816200   -1473.9803859929345435       0.0284849277835676
    1562.2514032554404366   -1471.8290599911288155       0.0286662509885800
    1575.1159791554425738   -1469.6378866086802191       0.0288482402493635
    1587.9937719160720917   -1467.4068799104231857       0.0290308983332196
    1600.8846988765735659   -1465.1360542168797565       0.0292142280031563
    1613.7886772918832321   -1462.8254241041627211       0.0293982320178711
    1626.7056243331651331   -1460.4750044038848955       0.0295829131317329
    1639.6354570883395354   -1458.0848102030622613       0.0297682740947644
    1652.5780925626120279   -1455.6548568440177860       0.0299543176526244
    1665.5334476790121698   -1453.1851599242829707       0.0301410465465902
    1678.5014392789228168   -1450.6757352964978054       0.0303284635135401
    1691.4819841226133121   -1448.1265990683091331       0.0305165712859358
    1704.4749988897797266   -1445.5377676022676496       0.0307053725918046
    1717.4804001800723654   -1442.9092575157196734       0.0308948701547224
    1730.4981045136341891   -1440.2410856807050550       0.0310850666937956
    1743.5280283316371879   -1437.5332692238469008       0.0312759649236442
    1756.5700879968183017   -1434.7858255262415241       0.0314675675543841
    1769.6241997940160218   -1431.9987722233470322       0.0316598772916098
    1782.6902799307076748   -1429.1721272048680476       0.0318528968363768
    1795.7682445375485258   -1426.3059086146465688       0.0320466288851845
    1808.8580096689079255   -1423.4001348505389615       0.0322410761299591
    1821.9594913034093224   -1420.4548245643020437       0.0324362412580357
    1835.0726053444709578   -1417.4699966614709865       0.0326321269521416
    1848.1972676208420125   -1414.4456703012397156       0.0328287358903788
    1861.3333938871478495   -1411.3818648963383566       0.0330260707462070
    1874.4808998244250233   -1408.2786001129043143       0.0332241341884263
    1887.6397010406674326   -1405.1358958703635835       0.0334229288811600
    1900.8097130713661045   -1401.9537723412945525       0.0336224574838377
    1913.9908513800510264   -1398.7322499513047660       0.0338227226511782
    1927.1830313588359331   -1395.4713493788985943       0.0340237270331722
    1940.3861683289558187   -1392.1710915553380801       0.0342254732750657
    1953.6001775413176347   -1388.8314976645203842       0.0344279640173426
    1966.8249741770389392   -1385.4525891428334035       0.0346312018957082
    1980.0604733479965489   -1382.0343876790182094       0.0348351895410718
    1993.3065900973663247   -1378.5769152140333063       0.0350399295795302
    2006.5632394001736429   -1375.0801939409120678       0.0352454246323506
    2019.8303361638359092   -1371.5442463046208559       0.0354516773159540
    2033.1077952287089374   -1367.9690950019148659       0.0356586902418980
    2046.3955313686371937   -1364.3547629811905608       0.0358664660168607
    2059.6934592914954010   -1360.7012734423399252       0.0360750072426232
    2073.0014936397392376   -1357.0086498366044907       0.0362843165160536
    2086.3195489909530806   -1353.2769158664195857       0.0364943964290898
    2099.6475398583970673   -1349.5060954852635859       0.0367052495687231
