                   X [km]                   Y [km]                 T [dias]
    -342.2603388610867796   -1227.7471185786007482       0.0000000000000000
    -331.8361995047368396   -1230.6278550481688399       0.0001102481997864
    -321.3990611640202815   -1233.4617920027283162       0.0002205001358092
    -310.9489678708435463   -1236.2489174865427231       0.0003307595442887
    -300.4859637117677380   -1238.9892197413685153       0.0004410301614141
    -290.0100928278204151   -1241.6826872064916643       0.0005513157233271
    -279.5213994143127820   -1244.3293085187895031       0.0006616199661063
    -269.0199277206500597   -1246.9290725127693804       0.0007719466257516
    -258.5057220501468009   -1249.4819682206195921       0.0008822994381683
    -247.9788267598388529   -1251.9879848722564475       0.0009926821391513
    -237.4392862602973366   -1254.4471118953670157       0.0011030984643695
    -226.8871450154399838   -1256.8593389154555098       0.0012135521493499
    -216.3224475423439799   -1259.2246557558833047       0.0013240469294620
    -205.7452384110589776   -1261.5430524379212329       0.0014345865399017
    -195.1555622444188032   -1263.8145191807809624       0.0015451747156760
    -184.5534637178516277   -1266.0390464016634269       0.0016558151915868
    -173.9389875591940324   -1268.2166247157938415       0.0017665117022156
    -163.3121785484997588   -1270.3472449364671775       0.0018772679819073
    -152.6730815178535181   -1272.4308980750836326       0.0019880877647547
    -142.0217413511785196   -1274.4675753411816004       0.0020989747845828
    -131.3582029840509904   -1276.4572681424895109       0.0022099327749327
    -120.6825114035070641   -1278.3999680849437937       0.0023209654690465
    -109.9947116478548850   -1280.2956669727350345       0.0024320765998507
     -99.2948488064848647   -1282.1443568083470836       0.0025432698999411
     -88.5829680196780203   -1283.9460297925738814       0.0026545491015669
     -77.8591144784165436   -1285.7006783245708448       0.0027659179366148
     -67.1233334241934330   -1287.4082950018766951       0.0028773801365934
     -56.3756701488204328   -1289.0688726204423347       0.0029889394326174
     -45.6161699942383549   -1290.6824041746726834       0.0031005995553918
     -34.8448783523245709   -1292.2488828574471427       0.0032123642351965
     -24.0618406647017693   -1293.7683020601436965       0.0033242372018700
     -13.2671024225476479   -1295.2406553726852962       0.0034362221847941
      -2.4607091664012097   -1296.6659365835462268       0.0035483229128779
       8.3572935140291893   -1298.0441396797907601       0.0036605431145424
      19.1868599800567026   -1299.3752588470933915       0.0037728865177045
      30.0279445442102855   -1300.6592884697670343       0.0038853568497613
      40.8805014704261609   -1301.8962231307828006       0.0039979578375743
      51.7444849742416793   -1303.0860576117959226       0.0041106932074540
      62.6198492229875612   -1304.2287868931653065       0.0042235666851440
      73.5065483359823304   -1305.3244061539771792       0.0043365819958050
      84.4045363847249206   -1306.3729107720653246       0.0044497428639995
      95.3137673930890656   -1307.3742963240251811       0.0045630530136760
     106.2341953375168515   -1308.3285585852404438       0.0046765161681530
     117.1657741472127441   -1309.2356935298957978       0.0047901360501038
     128.1084577043386901   -1310.0956973309985187       0.0049039163815402
     139.0621998442084646   -1310.9085663603846115       0.0050178608837972
     150.0269543554817346   -1311.6742971887479143       0.0051319732775174
     161.0026749803595578   -1312.3928865856432822       0.0052462572826349
     171.9893154147794121   -1313.0643315195070500       0.0053607166183597
     182.9868293086107656   -1313.6886291576640815       0.0054753550031625
     193.9951702658506463   -1314.2657768663473234       0.0055901761547582
     205.0142918448184446   -1314.7957722107009886       0.0057051837900910
     216.0441475583531030   -1315.2786129547951077       0.0058203816253182
     227.0846908740091408   -1315.7142970616364437       0.0059357733757946
     238.1358752142511719   -1316.1028226931709924       0.0060513627560572
     249.1976539566531699   -1316.4441882102998989       0.0061671534798089
     260.2699804340933838   -1316.7383921728792302       0.0062831492599035
     271.3528079349505902   -1316.9854333397283881       0.0063993538083295
     282.4460897033030164   -1317.1853106686378396       0.0065157708361946
     293.5497789391250194   -1317.3380233163697994       0.0066324040537105
     304.6638287984834506   -1317.4435706386655056       0.0067492571701763
     315.7881923937367219   -1317.5019521902447650       0.0068663338939637
     326.9228227937314841   -1317.5131677248102733       0.0069836379325012
     338.0676730240008965   -1317.4772171950432949       0.0071011729922579
     349.2226960669640334   -1317.3941007526141220       0.0072189427787285
     360.3878448621216535   -1317.2638187481693421       0.0073369509964176
     371.5630723062575953   -1317.0863717313404777       0.0074552013488237
     382.7483312536352855   -1316.8617604507351189       0.0075736975384238
     393.9435745161989075   -1316.5899858539391971       0.0076924432666577
     405.1487548637682607   -1316.2710490875044798       0.0078114422339128
     416.3638250242442496   -1315.9049514969553911       0.0079306981395077
     427.5887376838029468   -1315.4916946267730964       0.0080502146816773
     438.8234454870974446   -1315.0312802203930005       0.0081699955575569
     450.0679010374581139   -1314.5237102202013375       0.0082900444631666
     461.3220568970899080   -1313.9689867675167534       0.0084103650933957
     472.5858655872764302   -1313.3671122025934892       0.0085309611419873
     483.8592795885769533   -1312.7180890646006901       0.0086518363015225
     495.1422513410300326   -1312.0219200916224054       0.0087729942634047
     506.4347332443488199   -1311.2786082206337142       0.0088944387178445
     517.7366776581285421   -1310.4881565874986791       0.0090161733538438
     529.0480369020426679   -1309.6505685269539754       0.0091382018591802
     540.3687632560460088   -1308.7658475725913831       0.0092605279203916
     551.6988089605760024   -1307.8339974568464186       0.0093831552227605
     563.0381262167531986   -1306.8550221109831000       0.0095060874502986
     574.3866671865831677   -1305.8289256650743937       0.0096293282857311
     585.7443839931605680   -1304.7557124479872073       0.0097528814104815
     597.1112287208682119   -1303.6353869873648819       0.0098767505046555
     608.4871534155796553   -1302.4679540096042274       0.0100009392470261
     619.8721100848631522   -1301.2534184398377874       0.0101254513150174
     631.2660506981821982   -1299.9917854019140577       0.0102502903846899
     642.6689271870999391   -1298.6830602183763403       0.0103754601307243
     654.0806914454821026   -1297.3272484104390969       0.0105009642264062
     665.5012953296952674   -1295.9243556979597543       0.0106268063436108
     676.9306906588176389   -1294.4743879994250619       0.0107529901527872
     688.3688292148352730   -1292.9773514319163041       0.0108795193229431
     699.8156627428518277   -1291.4332523110917919       0.0110063975216290
     711.2711429512859240   -1289.8420971511525295       0.0111336284149229
     722.7352215120783967   -1288.2038926648172037       0.0112612156674153
     734.2078500608976128   -1286.5186457633008104       0.0113891629421927
     745.6889801973380827   -1284.7863635562723630       0.0115174739008231
     757.1785634851314626   -1283.0070533518382945       0.0116461522033402
     768.6765514523450520   -1281.1807226565001656       0.0117752015082279
     780.1828955915907500   -1279.3073791751335193       0.0119046254724048
     791.6975473602244620   -1277.3870308109439975       0.0120344277512092
     803.2204581805572161   -1275.4196856654448311       0.0121646119983830
     814.7515794400566165   -1273.4053520384168223       0.0122951818660571
     826.2908624915505698   -1271.3440384278737838       0.0124261410047350
     837.8382586534362417   -1269.2357535300284326       0.0125574930632785
     849.3937192098821924   -1267.0805062392532818       0.0126892416888915
     860.9571954110346041   -1264.8783056480453979       0.0128213905271049
     872.5286384732258966   -1262.6291610469875195       0.0129539432217610
     884.1079995791756119   -1260.3330819247069030       0.0130869034149988
     895.6952298781990294   -1257.9900779678375784       0.0132202747472377
     907.2902804864153268   -1255.6001590609798768       0.0133540608571629
     918.8931024869489192   -1253.1633352866558653       0.0134882653817095
     930.5036469301405759   -1250.6796169252702384       0.0136228919560476
     942.1218648337520563   -1248.1490144550650712       0.0137579442135666
     953.7477071831677904   -1245.5715385520713880       0.0138934257858602
     965.3811249316139538   -1242.9472000900771036       0.0140293403027109
     977.0220690003512800   -1240.2760101405642672       0.0141656913920745
     988.6704902788932259   -1237.5579799726756391       0.0143024826800654
    1000.3263396252050370   -1234.7931210531605757       0.0144397177909404
    1011.9895678659182749   -1231.9814450463279627       0.0145774003470843
    1023.6601257965304512   -1229.1229638139973304       0.0147155339689941
    1035.3379641816209187   -1226.2176894154506499       0.0148541222752639
    1047.0230337550510740   -1223.2656341073768544       0.0149931688825694
    1058.7152852201775204   -1220.2668103438229537       0.0151326774056532
    1070.4146692500585232   -1217.2212307761456032       0.0152726514573087
    1082.1211364876601237   -1214.1289082529478947       0.0154130946483659
    1093.8346375460664603   -1210.9898558200354728       0.0155540105876750
    1105.5551230086875876   -1207.8040867203526432       0.0156954028820924
    1117.2825434294679781   -1204.5716143939332596       0.0158372751364643
    1129.0168493330959336   -1201.2924524778429713       0.0159796309536125
    1140.7579912152100405   -1197.9666148061153308       0.0161224739343185
    1152.5059195426108545   -1194.5941154097029084       0.0162658076773087
    1164.2605847534671284   -1191.1749685164104449       0.0164096357792390
    1176.0219372575272700   -1187.7091885508400537       0.0165539618346797
    1187.7899274363267068   -1184.1967901343255107       0.0166987894361004
    1199.5645056433979789   -1180.6377880848760924       0.0168441221738549
    1211.3456222044824244   -1177.0321974171097281       0.0169899636361657
    1223.1332274177332238   -1173.3800333421906998       0.0171363174091094
    1234.9272715539364071   -1169.6813112677677964       0.0172831870766009
    1246.7277048567048041   -1165.9360467979040550       0.0174305762203790
    1258.5344775427020068   -1162.1442557330160525       0.0175784884199908
    1270.3475398018490523   -1158.3059540698086494       0.0177269272527768
    1282.1668417975274679   -1154.4211580011979095       0.0178758962938556
    1293.9923336667993681   -1150.4898839162542572       0.0180253991161093
    1305.8239655206095904   -1146.5121484001263070       0.0181754392901678
    1317.6616874440019274   -1142.4879682339726514       0.0183260203843941
    1329.5054494963267189   -1138.4173603948918299       0.0184771459648692
    1341.3552017114536739   -1134.3003420558504786       0.0186288195953770
    1353.2108940979805993   -1130.1369305856107985       0.0187810448373895
    1365.0724766394441758   -1125.9271435486543851       0.0189338252500514
    1376.9398992945320970   -1121.6709987051142434       0.0190871643901651
    1388.8131119972965735   -1117.3685140106949802       0.0192410658121763
    1400.6920646573571503   -1113.0197076165973158       0.0193955330681582
    1412.5767071601242151   -1108.6245978694453242       0.0195505697077969
    1424.4669893670015881   -1104.1832033112036697       0.0197061792783766
    1436.3628611155975250   -1099.6955426791023456       0.0198623653247642
    1448.2642722199443597   -1095.1616349055600494       0.0200191313893948
    1460.1711724707017765   -1090.5814991180991456       0.0201764810122565
    1472.0835116353719059   -1085.9551546392667660       0.0203344177308752
    1484.0012394585128277   -1081.2826209865565943       0.0204929450803003
    1495.9243056619493473   -1076.5639178723226905       0.0206520665930895
    1507.8526599449839978   -1071.7990652036965002       0.0208117857992937
    1519.7862519846091800   -1066.9880830825056819       0.0209721062264421
    1531.7250314357231673   -1062.1309918051867953       0.0211330313995279
    1543.6689479313342872   -1057.2278118626988999       0.0212945648409927
    1555.6179510827869308   -1052.2785639404423819       0.0214567100707121
    1567.5719904799589131   -1047.2832689181632304       0.0216194706059807
    1579.5310156914865729   -1042.2419478698739113       0.0217828499614971
    1591.4949762649675904   -1037.1546220637574152       0.0219468516493495
    1603.4638217271792655   -1032.0213129620808559       0.0221114791790004
    1615.4375015842954326   -1026.8420422211052028       0.0222767360572721
    1627.4159653220885957   -1021.6168316909933083       0.0224426257883319
    1639.3991624061529819   -1016.3457034157156613       0.0226091518736771
    1651.3870422821125885   -1011.0286796329610297       0.0227763178121204
    1663.3795543758360509   -1005.6657827740402809       0.0229441270997753
    1675.3766480936492371   -1000.2570354637914534       0.0231125832300408
    1687.3782728225489791    -994.8024605204871023       0.0232816896935872
    1699.3843779304177133    -989.3020809557344819       0.0234514499783414
    1711.3949127662383489    -983.7559199743816407       0.0236218675694716
    1723.4098266603002685    -978.1640009744162398       0.0237929459493733
    1735.4290689244228361    -972.5263475468689194       0.0239646885976540
    1747.4525888521632169    -966.8429834757140497       0.0241370989911190
    1759.4803357190328370    -961.1139327377696873       0.0243101806037566
    1771.5122587827106599    -955.3392195025933233       0.0244839369067230
    1783.5483072832569178    -949.5188681323833180       0.0246583713683284
    1795.5884304433288889    -943.6529031818753310       0.0248334874540220
    1807.6325774683909913    -937.7413493982372756       0.0250092886263771
    1819.6806975469335157    -931.7842317209671137       0.0251857783450771
    1831.7327398506854479    -925.7815752817848534       0.0253629600669004
    1843.7886535348300185    -919.7334054045309131       0.0255408372457060
    1855.8483877382150240    -913.6397476050531168       0.0257194133324189
    1867.9118915835736061    -907.5006275911049443       0.0258986917750158
    1879.9791141777307075    -901.3160712622327537       0.0260786760185099
    1892.0500046118304454    -895.0861047096711900       0.0262593695049372
    1904.1245119615343810    -888.8107542162271102       0.0264407756733414
    1916.2025852872532141    -882.4900462561732866       0.0266228979597594
    1928.2841736343480079    -876.1240074951364250       0.0268057397972073
    1940.3692260333532431    -869.7126647899804084       0.0269893046156653
    1952.4576915001864563    -863.2560451886987494       0.0271735958420636
    1964.5495190363731126    -856.7541759302982882       0.0273586169002678
    1976.6446576292451027    -850.2070844446816409       0.0275443712110647
    1988.7430562521749380    -843.6147983525357859       0.0277308621921474
    2000.8446638647751570    -836.9773454652104192       0.0279180932581013
    2012.9494294131250172    -830.2947537846084742       0.0281060678203897
    2025.0573018299758132    -823.5670515030575416       0.0282947892873388
    2037.1682300349789330    -816.7942670032015258       0.0284842610641244
    2049.2821629348877650    -809.9764288578726337       0.0286744865527564
    2061.3990494237814346    -803.1135658299756415       0.0288654691520651
    2073.5188383832801264    -796.2057068723648854       0.0290572122576870
    2085.6414786827567696    -789.2528811277210252       0.0292497192620497
    2097.7669191795584993    -782.2551179284311047       0.0294429935543586
    2109.8951087192140221    -775.2124467964622454       0.0296370385205817
    2122.0259961356614440    -768.1248974432388650       0.0298318575434358
    2134.1595302514492687    -760.9924997695138700       0.0300274540023724
    2146.2956598779646811    -753.8152838652472383       0.0302238312735627
    2158.4343338156454593    -746.5932800094758477       0.0304209927298843
    2170.5755008541955249    -739.3265186701883067       0.0306189417409061
    2182.7191097727954912    -732.0150305041912588       0.0308176816728748
    2194.8651093403332197    -724.6588463569887608       0.0310172158887002
    2207.0134483156039096    -717.2579972626421068       0.0312175477479412
    2219.1640754475365611    -709.8125144436472738       0.0314186806067918
    2231.3169394754054338    -702.3224293107974745       0.0316206178180666
    2243.4719891290478699    -694.7877734630533269       0.0318233627311869
    2255.6291731290839380    -687.2085786874117730       0.0320269186921663
    2267.7884401871228874    -679.5848769587651077       0.0322312890435971
    2279.9497390059937061    -671.9167004397736491       0.0324364771246357
    2292.1130182799465729    -664.2040814807249944       0.0326424862709885
    2304.2782266948834149    -656.4470526194002105       0.0328493198148984
    2316.4453129285607247    -648.6456465809336578       0.0330569810851301
    2328.6142256508178434    -640.7998962776805456       0.0332654734069563
    2340.7849135237861447    -632.9098348090710715       0.0334748001021438
    2352.9573252021114058    -624.9754954614752478       0.0336849644889393
    2365.1314093331602635    -616.9969117080617025       0.0338959698820555
    2377.3071145572521345    -608.9741172086554570       0.0341078195926570
    2389.4843895078606693    -600.9071458095971821       0.0343205169283466
    2401.6631828118411249    -592.7960315436010887       0.0345340651931511
    2413.8434430896409140    -584.6408086296058855       0.0347484676875072
    2426.0251189555187921    -576.4415114726389220       0.0349637277082481
    2438.2081590177654107    -568.1981746636656680       0.0351798485485891
    2450.3925118789084081    -559.9108329794429437       0.0353968334981140
    2462.5781261359452401    -551.5795213823761287       0.0356146858427612
    2474.7649503805478162    -543.2042750203689820       0.0358334088648095
    2486.9529331992816878    -534.7851292266768723       0.0360530058428646
    2499.1420231738279654    -526.3221195197536417       0.0362734800518454
    2511.3321688811952299    -517.8152816031100656       0.0364948347629697
    2523.5233188939391766    -509.2646513651540090       0.0367170732437409
    2535.7154217803781648    -500.6702648790436001       0.0369401987579336
    2547.9084261048078588    -492.0321584025381867       0.0371642145655806
    2560.1022804277276919    -483.3503683778367304       0.0373891239229586
    2572.2969333060436838    -474.6249314314329126       0.0376149300825746
    2584.4923332932967242    -465.8558843739547228       0.0378416362931522
    2596.6884289398772125    -457.0432642000117767       0.0380692457996180
    2608.8851687932378809    -448.1871080880404179       0.0382977618430875
    2621.0825013981125267    -439.2874534001426809       0.0385271876608521
    2633.2803752967388391    -430.3443376819324158       0.0387575264863648
