                   X [km]                   Y [km]                 T [dias]
    -324.8047475692916919   -1232.4800212140605709       0.0000000000000000
    -314.2405203152234776   -1235.2385170018540066       0.0001112527642839
    -303.6637333800099441   -1237.9491735869321474       0.0002225093753816
    -293.0744314872488872   -1240.6119795073693695       0.0003337736800909
    -282.4726594134585298   -1243.2269235035796555       0.0004450495251767
    -271.8584619878856756   -1245.7939945183572945       0.0005563407573554
    -261.2318840923182961   -1248.3131816969259944       0.0006676512232781
    -250.5929706608935987   -1250.7844743869829927       0.0007789847695148
    -239.9417666799107565   -1253.2078621387518069       0.0008903452425377
    -229.2783171876376684   -1255.5833347050129305       0.0010017364887053
    -218.6026672741230072   -1257.9108820411595389       0.0011131623542460
    -207.9148620810042019   -1260.1904943052340968       0.0012246266852415
    -197.2149468013166711   -1262.4221618579686037       0.0013361333276112
    -186.5029666793030003   -1264.6058752628321145       0.0014476861270955
    -175.7789670102216348   -1266.7416252860621171       0.0015592889292395
    -165.0429931401555166   -1268.8294028967086433       0.0016709455793770
    -154.2950904658198681   -1270.8691992666758779       0.0017826599226141
    -143.5353044343705449   -1272.8610057707471697       0.0018944358038128
    -132.7636805432115636   -1274.8048139866364181       0.0020062770675751
    -121.9802643398029147   -1276.7006156950114928       0.0021181875582263
    -111.1851014214688576   -1278.5484028795394806       0.0022301711197993
    -100.3782374352029620   -1280.3481677269107877       0.0023422315960176
     -89.5597180774776689   -1282.0999026268800662       0.0024543728302799
     -78.7295890940484213   -1283.8036001722905439       0.0025665986656431
     -67.8878962797628418   -1285.4592531591158604       0.0026789129448065
     -57.0346854783647572   -1287.0668545864780299       0.0027913195100953
     -46.1700025823025726   -1288.6263976566910969       0.0029038222034447
     -35.2938935325329481   -1290.1378757752750062       0.0030164248663833
     -24.4064043183284802   -1291.6012825509951654       0.0031291313400169
     -13.5075809770820783   -1293.0166117958815448       0.0032419454650124
      -2.5974695941125803   -1294.3838575252646024       0.0033548710815816
       8.3238836975301478   -1295.7030139577864247       0.0034679120294647
      19.2564327172596670   -1296.9740755154396084       0.0035810721479144
      30.2001312371491402   -1298.1970368235820388       0.0036943552756793
      41.1549329821267804   -1299.3718927109582637       0.0038077652509879
      52.1207916301706078   -1300.4986382097329169       0.0039213059115325
      63.0976608125047278   -1301.5772685554970849       0.0040349810944527
      74.0854941137966705   -1302.6077791872962734       0.0041487946363191
      85.0842450723511519   -1303.5901657476531454       0.0042627503731176
      96.0938671803087772   -1304.5244240825757061       0.0043768521402325
     107.1143138838418167   -1305.4105502415845876       0.0044911037724309
     118.1455385833508132   -1306.2485404777223721       0.0046055091038459
     129.1874946336619416   -1307.0383912475779198       0.0047200719679609
     140.2401353442240008   -1307.7800992112884160       0.0048347961975932
     151.3034139793070949   -1308.4736612325700662       0.0049496856248777
     162.3772837581976205   -1309.1190743787153679       0.0050647440812507
     173.4616978553993079   -1309.7163359206194855       0.0051799753974339
     184.5566094008280800   -1310.2654433327770676       0.0052953834034179
     195.6619714800132499   -1310.7663942933102135       0.0054109719284464
     206.7777371342923800   -1311.2191866839589238       0.0055267448009995
     217.9038593610139571   -1311.6238185901099769       0.0056427058487781
     229.0402911137331614   -1311.9802883007880610       0.0057588588986871
     240.1869853024110171   -1312.2885943086728275       0.0058752077768199
     251.3438947936154193   -1312.5487353101027566       0.0059917563084414
     262.5109724107182956   -1312.7607102050801586       0.0061085083179726
     273.6881709340962061   -1312.9245180972759499       0.0062254676289740
     284.8754431013298358   -1313.0401582940339722       0.0063426380641296
     296.0727416074045095   -1313.1076303063734940       0.0064600234452304
     307.2800191049078649   -1313.1269338489914844       0.0065776275931589
     318.4972282042327834   -1313.0980688402619307       0.0066954543278723
     329.7243214737771950   -1313.0210354022422052       0.0068135074683866
     340.9612514401422914   -1312.8958338606628331       0.0069317908327606
     352.2079705883379006   -1312.7224647449379518       0.0070503082380794
     363.4644313619779723   -1312.5009287881493947       0.0071690635004387
     374.7305861634852704   -1312.2312269270562410       0.0072880604349282
     386.0063873542925990   -1311.9133603020864030       0.0074073028556159
     397.2917872550416973   -1311.5473302573248020       0.0075267945755317
     408.5867381457876490   -1311.1331383405195083       0.0076465394066512
     419.8911922661983454   -1310.6707863030658245       0.0077665411598799
     431.2051018157599742   -1310.1602761000083319       0.0078868036450369
     442.5284189539739259   -1309.6016098900188354       0.0080073306708387
     453.8610958005631346   -1308.9947900354000012       0.0081281260448834
     465.2030844356739863   -1308.3398191020710328       0.0082491935736341
     476.5543369000766347   -1307.6366998595533460       0.0083705370624033
     487.9148051953703202   -1306.8854352809644297       0.0084921603153367
     499.2844412841867552   -1306.0860285430030672       0.0086140671353967
     510.6631970903897013   -1305.2384830259345563       0.0087362613243471
     522.0510244992813114   -1304.3428023135750209       0.0088587466827361
     533.4478753578061969   -1303.3989901932848170       0.0089815270098810
     544.8537014747505509   -1302.4070506559387468       0.0091046061038518
     556.2684546209516157   -1301.3669878959235575       0.0092279877614551
     567.6920865294983969   -1300.2788063111108841       0.0093516757782181
     579.1245488959351633   -1299.1425105028381495       0.0094756739483727
     590.5657933784688112   -1297.9581052758981059       0.0095999860648392
     602.0157715981698630   -1296.7255956385074569       0.0097246159192104
     613.4744351391793771   -1295.4449868022959436       0.0098495673017356
     624.9417355489110832   -1294.1162841822726932       0.0099748440013046
     636.4176243382609073   -1292.7394933968162150       0.0101004498054314
     647.9020529818064915   -1291.3146202676393841       0.0102263885002386
     659.3949729180167196   -1289.8416708197732987       0.0103526638704411
     670.8963355494536245   -1288.3206512815354472       0.0104792796993302
     682.4060922429811171   -1286.7515680845074257       0.0106062397687575
     693.9241943299693958   -1285.1344278635081082       0.0107335478591190
     705.4505931064981041   -1283.4692374565595401       0.0108612077493392
     716.9852398335668795   -1281.7560039048678391       0.0109892232168551
     728.5280857372980563   -1279.9947344527822679       0.0111175980375999
     740.0790820091443720   -1278.1854365477745432       0.0112463359859874
     751.6381798060947403   -1276.3281178404022285       0.0113754408348961
     763.2053302508817296   -1274.4227861842766742       0.0115049163556528
     774.7804844321869950   -1272.4694496360309586       0.0116347663180170
     786.3635934048487570   -1270.4681164552850987       0.0117649944901651
     797.9546081900675745   -1268.4187951046089893       0.0118956046386739
     809.5534797756167791   -1266.3214942494932984       0.0120266005285053
     821.1601591160459748   -1264.1762227583058120       0.0121579859229901
     832.7745971328896530   -1261.9829897022561909       0.0122897645838118
     844.3967447148763767   -1259.7418043553598181       0.0124219402709914
     856.0265527181337575   -1257.4526761943952806       0.0125545167428708
     867.6639719663984351   -1255.1156148988673067       0.0126874977560972
     879.3089532512237838   -1252.7306303509633381       0.0128208870656074
     890.9614473321838659   -1250.2977326355107834       0.0129546884246115
     902.6214049370888688   -1247.8169320399388198       0.0130889055845775
     914.2887767621892863   -1245.2882390542338271       0.0132235422952151
     925.9635134723828287   -1242.7116643708895936       0.0133586023044598
     937.6455657014273584   -1240.0872188848697988       0.0134940893584573
     949.3348840521443890   -1237.4149136935538991       0.0136300072015477
     961.0314190966339538   -1234.6947600966998380       0.0137663595762494
     972.7351213764795830   -1231.9267695963876577       0.0139031502232433
     984.4459414029574873   -1229.1109538969744790       0.0140403828813572
     996.1638296572461968   -1226.2473249050442519       0.0141780612875499
    1007.8887365906391551   -1223.3358947293606889       0.0143161891768952
    1019.6206126247485599   -1220.3766756808092850       0.0144547702825665
    1031.3594081517212544   -1217.3696802723541168       0.0145938083358206
    1043.1050735344408622   -1214.3149212189739501       0.0147333070659822
    1054.8575591067458390   -1211.2124114376190391       0.0148732702004281
    1066.6168151736360414   -1208.0621640471524643       0.0150137014645713
    1078.3827920114765675   -1204.8641923682887409       0.0151546045818452
    1090.1554398682217197   -1201.6185099235503912       0.0152959832736883
    1101.9347089636139572   -1198.3251304371988226       0.0154378412595279
    1113.7205494893967170   -1194.9840678351808947       0.0155801822567648
    1125.5129116095279187   -1191.5953362450707118       0.0157230099807571
    1137.3117454603914211   -1188.1589499960100511       0.0158663281448051
    1149.1170011509996129   -1184.6749236186458347       0.0160101404601353
    1160.9286287632164658   -1181.1432718450694210       0.0161544506358843
    1172.7465783519587603   -1177.5640096087563506       0.0162992623790841
    1184.5707999454127730   -1173.9371520444981343       0.0164445793946453
    1196.4012435452445970   -1170.2627144883467736       0.0165904053853422
    1208.2378591268072796   -1166.5407124775388183       0.0167367440517971
    1220.0805966393581912   -1162.7711617504394326       0.0168835990924642
    1231.9294060062686640   -1158.9540782464703170       0.0170309742036142
    1243.7842371252363591   -1155.0894781060458172       0.0171788730793190
    1255.6450398684914944   -1151.1773776704997090       0.0173272994114355
    1267.5117640830194432   -1147.2177934820217615       0.0174762568895903
    1279.3843595907635518   -1143.2107422835865691       0.0176257492011642
    1291.2627761888390978   -1139.1562410188764716       0.0177757800312764
    1303.1469636497497504   -1135.0543068322185718       0.0179263530627690
    1315.0368717215992547   -1130.9049570685085655       0.0180774719761913
    1326.9324501282951587   -1126.7082092731361627       0.0182291404497847
    1338.8336485697757325   -1122.4640811919127827       0.0183813621594663
    1350.7404167222102842   -1118.1725907709956118       0.0185341407788142
    1362.6527042382165291   -1113.8337561568107503       0.0186874799790517
    1374.5704607470779592   -1109.4475956959797713       0.0188413834290314
    1386.4936358549489341   -1105.0141279352394577       0.0189958547952202
    1398.4221791450713681   -1100.5333716213617663       0.0191508977416836
    1410.3560401779909625   -1096.0053457010806142       0.0193065159300700
    1422.2951684917652528   -1091.4300693210050213       0.0194627130195956
    1434.2395136021771123   -1086.8075618275413490       0.0196194926670286
    1446.1890250029573508   -1082.1378427668130371       0.0197768585266741
    1458.1436521659836671   -1077.4209318845735197       0.0199348142503581
    1470.1033445415064307   -1072.6568491261280087       0.0200933634874125
    1482.0680515583562737   -1067.8456146362439085       0.0202525098846597
    1494.0377226241603239   -1062.9872487590691890       0.0204122570863969
    1506.0123071255538889   -1058.0817720380459832       0.0205726087343808
    1517.9917544283975985   -1053.1292052158223669       0.0207335684678122
    1529.9760138779909084   -1048.1295692341657286       0.0208951399233208
    1541.9650347992812840   -1043.0828852338736397       0.0210573267349494
    1553.9587664970863443   -1037.9891745546854054       0.0212201325341391
    1565.9571582563016818   -1032.8484587351879327       0.0213835609497133
    1577.9601593421205052   -1027.6607595127336481       0.0215476156078628
    1589.9677190002448697   -1022.4260988233377248       0.0217123001321305
    1601.9797864570980437   -1017.1444988015917943       0.0218776181433959
    1613.9963109200466533   -1011.8159817805700413       0.0220435732598596
    1626.0172415776080470   -1006.4405702917329108       0.0222101690970283
    1638.0425275996699384   -1001.0182870648317248       0.0223774092676997
    1650.0721181377020912    -995.5491550278147770       0.0225452973819466
    1662.1059623249730066    -990.0331973067284252       0.0227138370471022
    1674.1440092767670649    -984.4704372256202305       0.0228830318677447
    1686.1862080905939365    -978.8608983064391396       0.0230528854456817
    1698.2325078464100443    -973.2046042689380556       0.0232234013799355
    1710.2828576068261555    -967.5015790305706105       0.0233945832667277
    1722.3372064173352101    -961.7518467063940761       0.0235664346994637
    1734.3955033065153657    -955.9554316089636359       0.0237389592687180
    1746.4576972862525963    -950.1123582482312031       0.0239121605622186
    1758.5237373519532866    -944.2226513314433305       0.0240860421648319
    1770.5935724827584181    -938.2863357630321843       0.0242606076585480
    1782.6671516417645762    -932.3034366445131127       0.0244358606224649
    1794.7444237762374541    -926.2739792743827820       0.0246118046327737
    1806.8253378178246749    -920.1979891480023070       0.0247884432627435
    1818.9098426827765707    -914.0754919575000486       0.0249657800827060
    1830.9978872721578682    -907.9065135916544023       0.0251438186600411
    1843.0894204720664220    -901.6910801357892069       0.0253225625591608
    1855.1843911538485372    -895.4292178716617627       0.0255020153414949
    1867.2827481743152020    -889.1209532773533510       0.0256821805654760
    1879.3844403759590023    -882.7663130271539558       0.0258630617865236
    1891.4894165871692167    -876.3653239914533515       0.0260446625570301
    1903.5976256224469125    -869.9180132366241196       0.0262269864263450
    1915.7090162826273172    -863.4244080249100080       0.0264100369407604
    1927.8235373550905933    -856.8845358143084923       0.0265938176434958
    1939.9411376139773893    -850.2984242584558388       0.0267783320746829
    1952.0617658204132567    -843.6661012065100067       0.0269635837713512
    1964.1853707227144241    -836.9875947030328689       0.0271495762674123
    1976.3119010566151701    -830.2629329878706130       0.0273363130936456
    1988.4413055454765527    -823.4921444960368717       0.0275237977776832
    2000.5735329005067342    -816.6752578575892585       0.0277120338439948
    2012.7085318209794877    -809.8123018975104515       0.0279010248138727
    2024.8462509944470185    -802.9033056355860936       0.0280907742054175
    2036.9866390969602890    -795.9482982862809877       0.0282812855335226
    2049.1296447932836600    -788.9473092586174516       0.0284725623098597
    2061.2752167371145333    -781.9003681560493533       0.0286646080428636
    2073.4233035712986748    -774.8075047763371686       0.0288574262377177
    2085.5738539280450823    -767.6687491114208797       0.0290510203963393
    2097.7268164291504036    -760.4841313472977617       0.0292453940173644
    2109.8821396862072106    -753.2536818638885734       0.0294405505961328
    2122.0397723008286448    -745.9774312349132970       0.0296364936246741
    2134.1996628648621481    -738.6554102277602851       0.0298332265916920
    2146.3617599606050135    -731.2876498033563166       0.0300307529825502
    2158.5260121610294846    -723.8741811160368798       0.0302290762792573
    2170.6923680299910302    -716.4150355134120218       0.0304281999604523
    2182.8607761224498063    -708.9102445362340177       0.0306281275013899
    2195.0311849846898440    -701.3598399182693583       0.0308288623739253
    2207.2035431545346000    -693.7638535861556193       0.0310304080465005
    2219.3777991615643259    -686.1223176592745858       0.0312327679841285
    2231.5539015273348014    -678.4352644496105995       0.0314359456483796
    2243.7317987655942488    -670.7027264616173170       0.0316399444973663
    2255.9114393825011575    -662.9247363920799216       0.0318447679857286
    2268.0927718768434715    -655.1013271299754024       0.0320504195646196
    2280.2757447402518665    -647.2325317563345379       0.0322569026816909
    2292.4603064574266682    -639.3183835441019482       0.0324642207810779
    2304.6464055063452179    -631.3589159579960324       0.0326723773033854
    2316.8339903584828789    -623.3541626543635630       0.0328813756856729
    2329.0230094790372277    -615.3041574810450811       0.0330912193614401
    2341.2134113271358729    -607.2089344772234654       0.0333019117606124
    2353.4051443560656480    -599.0685278732855750       0.0335134563095265
    2365.5981570134786125    -590.8829720906749117       0.0337258564309157
    2377.7923977416194248    -582.6523017417466690       0.0339391155438955
    2389.9878149775395286    -574.3765516296235774       0.0341532370639493
    2402.1843571533140675    -566.0557567480426542       0.0343682244029139
    2414.3819726962633467    -557.6899522812149144       0.0345840809689648
    2426.5806100291665643    -549.2791736036715520       0.0348008101666022
    2438.7802175704860019    -540.8234562801159200       0.0350184153966362
    2450.9807437345766630    -532.3228360652731226       0.0352369000561729
    2463.1821369319145560    -523.7773489037380159       0.0354562675385995
    2475.3843455693040596    -515.1870309298233224       0.0356765212335703
    2487.5873180501043862    -506.5519184674092230       0.0358976645269924
    2499.7910027744451327    -497.8720480297868676       0.0361197008010110
    2511.9953481394441042    -489.1474563195058067       0.0363426334339957
    2524.2003025394237739    -480.3781802282167632       0.0365664658005256
    2536.4058143661331997    -471.5642568365179272       0.0367912012713754
    2548.6118320089644840    -462.7057234137974433       0.0370168432135011
    2560.8183038551701429    -453.8026174180732824       0.0372433949900257
    2573.0251782900813851    -444.8549764958394803       0.0374708599602249
    2585.2324036973286638    -435.8628384819037933       0.0376992414795130
    2597.4399284590558636    -426.8262413992292181       0.0379285428994288
    2609.6477009561458544    -417.7452234587706243       0.0381587675676214
    2621.8556695684278566    -408.6198230593164453       0.0383899188278358
    2634.0637826749089072    -399.4500787873243439       0.0386220000198989
    2646.2719886539748586    -390.2360294167597203       0.0388550144797056
    2658.4802358836304848    -380.9777139089284788       0.0390889655392045
    2670.6884727416991154    -371.6751714123157626       0.0393238565263835
