                   X [km]                   Y [km]                 T [dias]
    -738.1273540987371007    -970.6375599614279963       0.0000000000000000
    -730.0077666238462371    -976.7829997483286206       0.0001031016546079
    -721.8601398906047280    -982.8914605880590898       0.0002062065752262
    -713.6845258761386503    -988.9629035121859033       0.0003093180278445
    -705.4809767361178956    -994.9972897884297254       0.0004124392784104
    -697.2495448044219302   -1000.9945809209100389       0.0005155735928096
    -688.9902825928062384   -1006.9547386503929829       0.0006187242368438
    -680.7032427905677423   -1012.8777249545329369       0.0007218944762111
    -672.3884782642069240   -1018.7635020481174024       0.0008250875764842
    -664.0460420570930182   -1024.6120323833054044       0.0009283068030901
    -655.6759873891248844   -1030.4232786498712358       0.0010315554212892
    -647.2783676563905146   -1036.1972037754389930       0.0011348366961543
    -638.8532364308259730   -1041.9337709257172264       0.0012381538925498
    -630.4006474598762679   -1047.6329435047398420       0.0013415102751112
    -621.9206546661508810   -1053.2946851550966585       0.0014449091082238
    -613.4133121470787273   -1058.9189597581630551       0.0015483536560021
    -604.8786741745643667   -1064.5057314343332564       0.0016518471822690
    -596.3167951946419407   -1070.0549645432481611       0.0017553929505351
    -587.7277298271274049   -1075.5666236840236252       0.0018589942239774
    -579.1115328652695098   -1081.0406736954755615       0.0019626542654190
    -570.4682592754016923   -1086.4770796563425392       0.0020663763373083
    -561.7979641965888504   -1091.8758068855124748       0.0021701637016975
    -553.1007029402799162   -1097.2368209422406835       0.0022740196202227
    -544.3765309899491740   -1102.5600876263708869       0.0023779473540825
    -535.6255040007491743   -1107.8455729785532640       0.0024819501640173
    -526.8476777991488689   -1113.0932432804609107       0.0025860313102887
    -518.0431083825818632   -1118.3030650550035716       0.0026901940526584
    -509.2118519190884172   -1123.4750050665450090       0.0027944416503676
    -500.3539647469560236   -1128.6090303211115042       0.0028987773621164
    -491.4695033743604426   -1133.7051080666026337       0.0030032044460425
    -482.5585244790061097   -1138.7632057930022711       0.0031077261597008
    -473.6210849077631337   -1143.7832912325848156       0.0032123457600425
    -464.6572416763061142   -1148.7653323601196007       0.0033170665033944
    -455.6670519687487513   -1153.7092973930782591       0.0034218916454380
    -446.6505731372805599   -1158.6151547918336746       0.0035268244411888
    -437.6078627018009115   -1163.4828732598671195       0.0036318681449756
    -428.5389783495504616   -1168.3124217439594759       0.0037370260104196
    -419.4439779347447370   -1173.1037694343960993       0.0038423012904137
    -410.3229194782045965   -1177.8568857651625876       0.0039476972371019
    -401.1758611669866355   -1182.5717404141364568       0.0040532171018583
    -392.0028613540100650   -1187.2483033032831372       0.0041588641352664
    -382.8039785576867757   -1191.8865445988456031       0.0042646415870985
    -373.5792714615474779   -1196.4864347115408236       0.0043705527062952
    -364.3287989138657963   -1201.0479442967398427       0.0044766007409438
    -355.0526199272849226   -1205.5710442546594550       0.0045827889382587
    -345.7507936784394360   -1210.0557057305509261       0.0046891205445599
    -336.4233795075791704   -1214.5019001148771167       0.0047955988052524
    -327.0704369181894435   -1218.9095990434996111       0.0049022269648059
    -317.6920255766126502   -1223.2787743978594790       0.0050090082667337
    -308.2882053116667294   -1227.6093983051548548       0.0051159459535721
    -298.8590361142641996   -1231.9014431385207899       0.0052230432668600
    -289.4045781370281816   -1236.1548815172031937       0.0053303034471175
    -279.9248916939101832   -1240.3696863067361846       0.0054377297338262
    -270.4200372598046442   -1244.5458306191117117       0.0055453253654078
    -260.8900754701630831   -1248.6832878129548590       0.0056530935792037
    -251.3350671206071070   -1252.7820314936918749       0.0057610376114543
    -241.7550731665415071   -1256.8420355137175193       0.0058691606972784
    -232.1501547227640572   -1260.8632739725651390       0.0059774660706526
    -222.5203730630760788   -1264.8457212170678758       0.0060859569643906
    -212.8657896198928370   -1268.7893518415246490       0.0061946366101224
    -203.1864659838497289   -1272.6941406878622729       0.0063035082382742
    -193.4824639034106042   -1276.5600628457964376       0.0064125750780472
    -183.7538452844728738   -1280.3870936529885967       0.0065218403573973
    -174.0006721899738125   -1284.1752086952039917       0.0066313073030147
    -164.2230068394939337   -1287.9243838064696774       0.0067409791403028
    -154.4209116088597114   -1291.6345950692245879       0.0068508590933580
    -144.5944490297464142   -1295.3058188144752876       0.0069609503849491
    -134.7436817892788383   -1298.9380316219483120       0.0070712562364966
    -124.8686727296311147   -1302.5312103202336402       0.0071817798680523
    -114.9694848476265179   -1306.0853319869379447       0.0072925244982787
    -105.0461812943341755   -1309.6003739488294286       0.0074034933444284
     -95.0988253746689480   -1313.0763137819812982       0.0075146896223237
     -85.1274805469846285   -1316.5131293119161455       0.0076261165463359
     -75.1322104226702550   -1319.9107986137478292       0.0077377773293650
     -65.1130787657446746   -1323.2693000123167621       0.0078496751828192
     -55.0701494924493105   -1326.5886120823372494       0.0079618133165941
     -45.0034866708410917   -1329.8687136485239080       0.0080741949390526
     -34.9131545203818163   -1333.1095837857355946       0.0081868232570043
     -24.7992174115317283   -1336.3112018191004609       0.0082997014756850
     -14.6617398653361501   -1339.4735473241557884       0.0084128327987363
      -4.5007865530137545   -1342.5966001269746357       0.0085262204281850
       5.6835777044531861   -1345.6803403042931677       0.0086398675644231
      15.8912879367357203   -1348.7247481836398038       0.0087537774061867
      26.1222790245705703   -1351.7298043434600459       0.0088679531505364
      36.3764857001754862   -1354.6954896132413069       0.0089823979928362
      46.6538425476674874   -1357.6217850736334185       0.0090971151267335
      56.9542840034780298   -1360.5086720565700489       0.0092121077441388
      67.2777443567725015   -1363.3561321453908022       0.0093273790352049
      77.6241577498686155   -1366.1641471749519496       0.0094429321883070
      87.9934581786582299   -1368.9326992317485292       0.0095587703900222
      98.3855794930257304   -1371.6617706540271229       0.0096748968251090
     108.8004553972728701   -1374.3513440318965877       0.0097913146764872
     119.2380194505385731   -1377.0014022074406057       0.0099080271252177
     129.6982050672267803   -1379.6119282748270507       0.0100250373504819
     140.1809455174272898   -1382.1829055804153086       0.0101423485295615
     150.6861739273437308   -1384.7143177228635977       0.0102599638378183
     161.2138232797196622   -1387.2061485532321967       0.0103778864486741
     171.7638264142661058   -1389.6583821750887182       0.0104961195335902
     182.3361160280892648   -1392.0710029446042881       0.0106146662620471
     192.9306246761219086   -1394.4439954706620028       0.0107335298015246
     203.5472847715509772   -1396.7773446149469692       0.0108527133174815
     214.1860285862507283   -1399.0710354920454392       0.0109722199733352
     224.8467882512139795   -1401.3250534695430360       0.0110920529304416
     235.5294957569841188   -1403.5393841681129743       0.0112122153480751
     246.2340829540925142   -1405.7140134616120122       0.0113327103834084
     256.9604815534884779   -1407.8489274771684450       0.0114535411914922
     267.7086231269786936   -1409.9441125952707807       0.0115747109252350
     278.4784391076607335   -1411.9995554498523234       0.0116962227353835
     289.2698607903640777   -1414.0152429283848505       0.0118180797705019
     300.0828193320850801   -1415.9911621719504637       0.0119402851769521
     310.9172457524283004   -1417.9273005753327652       0.0120628420988737
     321.7730709340436306   -1419.8236457870934828       0.0121857536781637
     332.6502256230715489   -1421.6801857096502317       0.0123090230544567
     343.5486404295821217   -1423.4969084993570050       0.0124326533651047
     354.4682458280174160   -1425.2738025665769328       0.0125566477451572
     365.4089721576370380   -1427.0108565757593624       0.0126810093273410
     376.3707496229596927   -1428.7080594455073879       0.0128057412420406
     387.3535082942121903   -1430.3654003486522015       0.0129308466172779
     398.3571781077720857   -1431.9828687123222153       0.0130563285786922
     409.3816888666148657   -1433.5604542180069529       0.0131821902495205
     420.4269702407656268   -1435.0981468016282179       0.0133084347505776
     431.4929517677433068   -1436.5959366536001198       0.0134350652002358
     442.5795628530114527   -1438.0538142188941038       0.0135620847144056
     453.6867327704302397   -1439.4717701970953385       0.0136894964065152
     464.8143906627059891   -1440.8497955424716110       0.0138173033874911
     475.9624655418437555   -1442.1878814640194832       0.0139455087657379
     487.1308862895992320   -1443.4860194255277293       0.0140741156471190
     498.3195816579341226   -1444.7442011456303135       0.0142031271349361
     509.5284802694699806   -1445.9624185978575497       0.0143325463299099
     520.7575106179430122   -1447.1406640106924897       0.0144623763301602
     532.0066010686604159   -1448.2789298676107137       0.0145926202311860
     543.2756798589573464   -1449.3772089071378559       0.0147232811258459
     554.5646750986568350   -1450.4354941228928055       0.0148543621043384
     565.8735147705240252   -1451.4537787636286339       0.0149858662541819
     577.2021267307297876   -1452.4320563332819347       0.0151177966601954
     588.5504387093081959   -1453.3703205910089764       0.0152501564044786
     599.9183783106199144   -1454.2685655512291305       0.0153829485663922
     611.3058730138111514   -1455.1267854836607967       0.0155161762225385
     622.7128501732797758   -1455.9449749133609657       0.0156498424467413
     634.1392370191348391   -1456.7231286207534140       0.0157839503100269
     645.5849606576651922   -1457.4612416416719043       0.0159185028806041
     657.0499480718004861   -1458.1593092673831507       0.0160535032238445
     668.5341261215780833   -1458.8173270446200149       0.0161889544022635
     680.0374215446126982   -1459.4352907756124296       0.0163248594755003
     691.5597609565596713   -1460.0131965181105897       0.0164612215002984
     703.1010708515840406   -1460.5510405854108740       0.0165980435304865
     714.6612776028318876   -1461.0488195463810825       0.0167353286169584
     726.2403074628980448   -1461.5065302254799917       0.0168730798076541
     737.8380865642949402   -1461.9241697027796363       0.0170113001475400
     749.4545409199275809   -1462.3017353139821353       0.0171499926785898
     761.0895964235645579   -1462.6392246504401555       0.0172891604397645
     772.7431788503066628   -1462.9366355591646425       0.0174288064669939
     784.4152138570668740   -1463.1939661428486943       0.0175689337931563
     796.1056269830399970   -1463.4112147598718821       0.0177095454480599
     807.8143436501794667   -1463.5883800243150290       0.0178506444584230
     819.5412891636725590   -1463.7254608059658949       0.0179922338478550
     831.2863887124162829   -1463.8224562303291805       0.0181343166368368
     843.0495673694969128   -1463.8793656786297106       0.0182768958427017
     854.8307500926662215   -1463.8961887878185735       0.0184199744796164
     866.6298617248199889   -1463.8729254505747122       0.0185635555585612
     878.4468269944778740   -1463.8095758153040151       0.0187076420873112
     890.2815705162641962   -1463.7061402861399984       0.0188522370704172
     902.1340167913884898   -1463.5626195229428959       0.0189973435091863
     914.0040902081256036   -1463.3790144412896552       0.0191429644016625
     925.8917150423015983   -1463.1553262124762114       0.0192891027426083
     937.7968154577728228   -1462.8915562635017977       0.0194357615234850
     949.7193155069128352   -1462.5877062770664452       0.0195829437324337
     961.6591391310945482   -1462.2437781915559754       0.0197306523542565
     973.6162101611777189   -1461.8597742010329057       0.0198788903703973
     985.5904523179927992   -1461.4356967552189417       0.0200276607589225
     997.5817892128284257   -1460.9715485594817892       0.0201769664945027
    1009.5901443479193631   -1460.4673325748174193       0.0203268105483928
    1021.6154411169338800   -1459.9230520178318784       0.0204771958884141
    1033.6576028054603285   -1459.3387103607176414       0.0206281254789343
    1045.7165525915031594   -1458.7143113312365585       0.0207796022808494
    1057.7922135459634774   -1458.0498589126909792       0.0209316292515644
    1069.8845086331382390   -1457.3453573439012416       0.0210842093449746
    1081.9933607112068330   -1456.6008111191786156       0.0212373455114466
    1094.1186925327249355   -1455.8162249882952892       0.0213910406977997
    1106.2604267451181386   -1454.9916039564566290       0.0215452978472869
    1118.4184858911714855   -1454.1269532842636636       0.0217001198995763
    1130.5927924095296930   -1453.2222784876871629       0.0218555097907320
    1142.7832686351864595   -1452.2775853380264834       0.0220114704531959
    1154.9898367999830953   -1451.2928798618750079       0.0221680048157686
    1167.2124190331035152   -1450.2681683410819460       0.0223251158035907
    1179.4509373615717323   -1449.2034573127120893       0.0224828063381246
    1191.7053137107468501   -1448.0987535690032928       0.0226410793371352
    1203.9754699048257862   -1446.9540641573235007       0.0227999377146717
    1216.2613276673366727   -1445.7693963801273185       0.0229593843810490
    1228.5628086216413521   -1444.5447577949059905       0.0231194222428290
    1240.8798342914369641   -1443.2801562141437444       0.0232800542028021
    1253.2123261012509374   -1441.9755997052636758       0.0234412831599689
    1265.5602053769484883   -1440.6310965905774992       0.0236031120095211
    1277.9233933462305686   -1439.2466554472368898       0.0237655436428238
    1290.3018111391365892   -1437.8222851071700461       0.0239285809473966
    1302.6953797885507811   -1436.3579946570337142       0.0240922268068952
    1315.1040202307028721   -1434.8537934381504328       0.0242564841010930
    1327.5276533056710377   -1433.3096910464503253       0.0244213557058630
    1339.9661997578934916   -1431.7256973324101637       0.0245868444931592
    1352.4195802366657517   -1430.1018224009901587       0.0247529533309982
    1364.8877152966522317   -1428.4380766115675669       0.0249196850834412
    1377.3705253983930561   -1426.7344705778764364       0.0250870426105754
    1389.8679309088083755   -1424.9910151679330284       0.0252550287684961
    1402.3798521017097301   -1423.2077215039707880       0.0254236464092883
    1414.9062091583043639   -1421.3846009623671307       0.0255928983810082
    1427.4469221677093174   -1419.5216651735727282       0.0257627875276658
    1440.0019111274591523   -1417.6189260220357937       0.0259333166892059
    1452.5710959440141323   -1415.6763956461277303       0.0261044887014906
    1465.1543964332754513   -1413.6940864380635503       0.0262763063962809
    1477.7517323210927316   -1411.6720110438254778       0.0264487726012187
    1490.3630232437801624   -1409.6101823630788203       0.0266218901398089
    1502.9881887486237702   -1407.5086135490946617       0.0267956618314012
    1515.6271482944009676   -1405.3673180086611865       0.0269700904911721
    1528.2798212518887340   -1403.1863094020000062       0.0271451789301071
    1540.9461269043822540   -1400.9656016426802125       0.0273209299549828
    1553.6259844482060544   -1398.7052088975269726       0.0274973463683486
    1566.3193129932333250   -1396.4051455865339904       0.0276744309685094
    1579.0260315633997834   -1394.0654263827686918       0.0278521865495074
    1591.7460590972193586   -1391.6860662122817303       0.0280306159011042
    1604.4793144483044216   -1389.2670802540078512       0.0282097218087631
    1617.2257163858789681   -1386.8084839396735788       0.0283895070536317
    1629.9851835953020327   -1384.3102929536967167       0.0285699744125234
    1642.7576346785824626   -1381.7725232330822109       0.0287511266579004
    1655.5429881548989215   -1379.1951909673291539       0.0289329665578557
    1668.3411624611230764   -1376.5783125983209629       0.0291154968760952
    1681.1520759523327797   -1373.9219048202203339       0.0292987203719207
    1693.9756469023418504   -1371.2259845793673776       0.0294826398002117
    1706.8117935042137105   -1368.4905690741668423       0.0296672579114080
    1719.6604338707870738   -1365.7156757549819304       0.0298525774514924
    1732.5214860351984498   -1362.9013223240203843       0.0300386011619730
    1745.3948679514041942   -1360.0475267352228457       0.0302253317798655
    1758.2804974947032406   -1357.1543071941466678       0.0304127720376760
    1771.1782924622611972   -1354.2216821578531381       0.0306009246633837
    1784.0881705736394451   -1351.2496703347874245       0.0307897923804231
    1797.0100494713108219   -1348.2382906846582955       0.0309793779076669
    1809.9438467211907664   -1345.1875624183196578       0.0311696839594086
    1822.8894798131659627   -1342.0975049976450464       0.0313607132453451
    1835.8468661616143436   -1338.9681381354075711       0.0315524684705596
    1848.8159231059373724   -1335.7994817951500863       0.0317449523355042
    1861.7965679110814108   -1332.5915561910601355       0.0319381675359826
    1874.7887177680711375   -1329.3443817878396658       0.0321321167631331
    1887.7922897945370551   -1326.0579793005754254       0.0323268027034114
    1900.8072010352389043   -1322.7323696946070868       0.0325222280385732
    1913.8333684626029481   -1319.3675741853940053       0.0327183954456575
    1926.8707089772449308   -1315.9636142383753850       0.0329153075969691
    1939.9191394085039519   -1312.5205115688386286       0.0331129671600620
    1952.9785765149706549   -1309.0382881417808676       0.0333113767977219
    1966.0489369850217827   -1305.5169661717650342       0.0335105391679497
    1979.1301374373476847   -1301.9565681227802543       0.0337104569239442
    1992.2220944214852807   -1298.3571167080976920       0.0339111327140852
    2005.3247244183530711   -1294.7186348901279871       0.0341125691819168
    2018.4379438407793259   -1291.0411458802714151       0.0343147689661303
    2031.5616690340405057   -1287.3246731387723685       0.0345177347005475
    2044.6958162763901328   -1283.5692403745692900       0.0347214690141042
    2057.8403017795990309   -1279.7748715451414228       0.0349259745308326
    2070.9950416894798764   -1275.9415908563594257       0.0351312538698453
    2084.1599520864342594   -1272.0694227623262123       0.0353373096453186
    2097.3349489859760979   -1268.1583919652271106       0.0355441444664752
