                   X [km]                   Y [km]                 T [dias]
    -328.4267339160076062   -1174.3530747292072647       0.0000000000000000
    -318.1387791799848515   -1177.2046495678498559       0.0001063107329298
    -307.8375792955849306   -1180.0086942405105219       0.0002126253126616
    -297.5231783348930321   -1182.7651967505200901       0.0003189475859807
    -287.1956204264720895   -1185.4741453046081006       0.0004252813996397
    -276.8549497551760510   -1188.1355283129612417       0.0005316306003418
    -266.5012105619594536   -1190.7493343892624580       0.0006379990347243
    -256.1344471436886465   -1193.3155523507498401       0.0007443905493422
    -245.7547038529517920   -1195.8341712182589163       0.0008508089906519
    -235.3620250978698607   -1198.3051802162694912       0.0009572582049943
    -224.9564553419056949   -1200.7285687729511210       0.0010637420385791
    -214.5380391036746062   -1203.1043265202129078       0.0011702643374674
    -204.1068209567532392   -1205.4324432937457914       0.0012768289475561
    -193.6628455294899709   -1207.7129091330616575       0.0013834397145609
    -183.2061575048122677   -1209.9457142815404040       0.0014901004840000
    -172.7368016200372836   -1212.1308491864749612       0.0015968151011778
    -162.2548226666791606   -1214.2683044991035786       0.0017035874111683
    -151.7602654902576660   -1216.3580710746516615       0.0018104212587985
    -141.2531749901072828   -1218.4001399723829309       0.0019173204886323
    -130.7335961191845115   -1220.3945024556203407       0.0020242889449538
    -120.2015738838738486   -1222.3411499917924630       0.0021313304717511
    -109.6571533437981003   -1224.2400742524712314       0.0022384489126992
     -99.1003796116243763   -1226.0912671134012726       0.0023456481111447
     -88.5312978528703240   -1227.8947206545449262       0.0024529319100881
     -77.9499532857122119   -1229.6504271601052096       0.0025603041521683
     -67.3563911807903395   -1231.3583791185631071       0.0026677686796458
     -56.7506568610158126   -1233.0185692227105392       0.0027753293343860
     -46.1327957013772121   -1234.6309903696856054       0.0028829899578432
     -35.5028531287453717   -1236.1956356609910017       0.0029907543910442
     -24.8608746216798231   -1237.7124984025351750       0.0030986264745714
     -14.2069057102341727   -1239.1815721046580165       0.0032066100485467
      -3.5409919757605737   -1240.6028504821535989       0.0033147089526150
       7.1368209492846475   -1241.9763274543049647       0.0034229270259278
      17.8264873815355926   -1243.3019971449016339       0.0035312681071267
      28.5279615869136478   -1244.5798538822755290       0.0036397360343272
      39.2411977808223611   -1245.8098921993107524       0.0037483346451020
      49.9661501283434717   -1246.9921068334811025       0.0038570677764645
      60.7027727444329059   -1248.1264927268646261       0.0039659392648530
      71.4510196941171500   -1249.2130450261681744       0.0040749529461134
      82.2108449926898288   -1250.2517590827449112       0.0041841126554835
      92.9822026059081850   -1251.2426304526186414       0.0042934222275764
     103.7650464501907948   -1252.1856548965004094       0.0044028854963639
     114.5593303928133366   -1253.0808283798055527       0.0045125062951603
     125.3650082521073017   -1253.9281470726737098       0.0046222884566059
     136.1820337976575672   -1254.7276073499838276       0.0047322358126505
     147.0103607504985348   -1255.4792057913684857       0.0048423521945375
     157.8499427833144750   -1256.1829391812302674       0.0049526414327868
     168.7007335206355378   -1256.8388045087556293       0.0050631073571789
     179.5626865390377134   -1257.4467989679262701       0.0051737537967385
     190.4357553673413861   -1258.0069199575332277       0.0052845845797176
     201.3198934868083256   -1258.5191650811843829       0.0053956035335801
     212.2150543313432820   -1258.9835321473196927       0.0055068144849842
     223.1211912876914596   -1259.4000191692146018       0.0056182212597672
     234.0382576956382934   -1259.7686243649957305       0.0057298276829283
     244.9662068482100210   -1260.0893461576442860       0.0058416375786127
     255.9049919918719809   -1260.3621831749992452       0.0059536547700949
     266.8545663267293548   -1260.5871342497709975       0.0060658830797627
     277.8148830067283939   -1260.7641984195404348       0.0061783263291005
     288.7858951398549721   -1260.8933749267682742       0.0062909883386732
     299.7675557883363808   -1260.9746632187900559       0.0064038729281098
     310.7598179688419009   -1261.0080629478286482       0.0065169839160869
     321.7626346526831753   -1260.9935739709860627       0.0066303251203127
     332.7759587660186185   -1260.9311963502543676       0.0067439003575103
     343.7997431900485026   -1260.8209303525038649       0.0068577134434015
     354.8339407612222089   -1260.6627764494905932       0.0069717681926905
     365.8785042714388851   -1260.4567353178531448       0.0070860684190478
     376.9333864682469084   -1260.2028078391051622       0.0072006179350934
     387.9985400550499435   -1259.9009950996380667       0.0073154205523808
     399.0739176913031088   -1259.5512983907074158       0.0074304800813809
     410.1594719927251731   -1259.1537192084397248       0.0075458003314651
     421.2551555314893790   -1258.7082592538115478       0.0076613851108894
     432.3609208364382539   -1258.2149204326581184       0.0077772382267784
     443.4767203932785264   -1257.6737048556531136       0.0078933634851082
     454.6025066447855352   -1257.0846148383006948       0.0080097646906908
     465.7382319910105934   -1256.4476529009332353       0.0081264456471577
     476.8838487894807372   -1255.7628217686917651       0.0082434101569433
     488.0393093554040433   -1255.0301243715207420       0.0083606620212690
     499.2045659618748346   -1254.2495638441530446       0.0084782050401269
     510.3795708400743365   -1253.4211435260936014       0.0085960430122631
     521.5642761794795206   -1252.5448669616134794       0.0087141797351622
     532.7586341280639317   -1251.6207378997225987       0.0088326190050304
     543.9625967925052237   -1250.6487602941667774       0.0089513646167795
     555.1761162383874080   -1249.6289383033986269       0.0090704203640108
     566.3991444904081618   -1248.5612762905709587       0.0091897900389985
     577.6316335325830096   -1247.4457788235079079       0.0093094774326739
     588.8735353084497319   -1246.2824506746910629       0.0094294863346091
     600.1248017212784589   -1245.0712968212430951       0.0095498205330003
     611.3853846342703946   -1243.8123224448952442       0.0096704838146523
     622.6552358707698431   -1242.5055329319748125       0.0097914799649619
     633.9343072144674807   -1241.1509338733769710       0.0099128127679016
     645.2225504096073792   -1239.7485310645461141       0.0100344860060038
     656.5199171611919837   -1238.2983305054410721       0.0101565034603443
     667.8263591351914101   -1236.8003384005226053       0.0102788689105263
     679.1418279587494453   -1235.2545611587163421       0.0104015861346640
     690.4662752203885248   -1233.6610053933920881       0.0105246589093668
     701.7996524702172110   -1232.0196779223283556       0.0106480910097227
     713.1419112201424468   -1230.3305857676921278       0.0107718862092825
     724.4930029440673707   -1228.5937361559999772       0.0108960482800435
     735.8528790781100497   -1226.8091365180941921       0.0110205809924336
     747.2214910208037963   -1224.9767944891086699       0.0111454881152947
     758.5987901333055561   -1223.0967179084332201       0.0112707734158670
     769.9847277396074787   -1221.1689148196835504       0.0113964406597725
     781.3792551267418958   -1219.1933934706660239       0.0115224936109994
     792.7823235449930053   -1217.1701623133426438       0.0116489360318856
     804.1938842081016219   -1215.0992300037933092       0.0117757716831027
     815.6138882934765206   -1212.9806054021807995       0.0119030043236400
     827.0422869424038481   -1210.8142975727128032       0.0120306377107881
     838.4790312602516451   -1208.6003157835987167       0.0121586756001234
     849.9240723166861926   -1206.3386695070182668       0.0122871217454914
     861.3773611458742607   -1204.0293684190717158       0.0124159798989913
     872.8388487466985453   -1201.6724223997480294       0.0125452538109591
     884.3084860829618492   -1199.2678415328725805       0.0126749472299526
     895.7862240836021783   -1196.8156361060734980       0.0128050639027343
     907.2720136428984006   -1194.3158166107302804       0.0129356075742561
     918.7658056206822721   -1191.7683937419317317       0.0130665819876432
     930.2675508425487578   -1189.1733783984316233       0.0131979908841776
     941.7772001000656701   -1186.5307816826009457       0.0133298380032828
     953.2947041509851260   -1183.8406149003787959       0.0134621270825071
     964.8200137194546642   -1181.1028895612275846       0.0135948618575081
     976.3530794962257460   -1178.3176173780798308       0.0137280460620366
     987.8938521388644176   -1175.4848102672883670       0.0138616834279205
     999.4422822719683381   -1172.6044803485808643       0.0139957776850490
    1010.9983204873710747   -1169.6766399450020799       0.0141303325613564
    1022.5619173443565160   -1166.7013015828611060       0.0142653517828066
    1034.1330233698708980   -1163.6784779916833941       0.0144008390733765
    1045.7115890587308513   -1160.6081821041482272       0.0145367981550408
    1057.2975648738420205   -1157.4904270560418809       0.0146732327477555
    1068.8909012464037005   -1154.3252261861937313       0.0148101465694422
    1080.4915485761271157   -1151.1125930364260057       0.0149475433359723
    1092.0994572314423294   -1147.8525413514905722       0.0150854267611509
    1103.7145775497137947   -1144.5450850790130062       0.0152238005567011
    1115.3368598374513567   -1141.1902383694302898       0.0153626684322479
    1126.9662543705237567   -1137.7880155759332865       0.0155020340953026
    1138.6027113943739550   -1134.3384312544067143       0.0156419012512467
    1150.2461811242244494   -1130.8415001633593420       0.0157822736033161
    1161.8966137452971452   -1127.2972372638691922       0.0159231548525855
    1173.5539594130243586   -1123.7056577195141926       0.0160645486979521
    1185.2181682532623199   -1120.0667768963107847       0.0162064588361202
    1196.8891903625042232   -1116.3806103626457116       0.0163488889615852
    1208.5669758080916836   -1112.6471738892087160       0.0164918427666177
    1220.2514746284343801   -1108.8664834489318309       0.0166353239412480
    1231.9426368332171933   -1105.0385552169104812       0.0167793361732501
    1243.6404124036141638   -1101.1634055703395916       0.0169238831481257
    1255.3447512925122282   -1097.2410510884478754       0.0170689685490891
    1267.0556034247108528   -1093.2715085524196184       0.0172145960570507
    1278.7729186971473609   -1089.2547949453253295       0.0173607693506017
    1290.4966469791079362   -1085.1909274520526196       0.0175074921059982
    1302.2267381124413532   -1081.0799234592279845       0.0176547679971456
    1313.9631419117708901   -1076.9218005551415445       0.0178026006955828
    1325.7058081647169274   -1072.7165765296795144       0.0179509938704662
    1337.4546866321011294   -1068.4642693742373467       0.0180999511885548
    1349.2097270481738178   -1064.1648972816542482       0.0182494763141935
    1360.9708791208172443   -1059.8184786461242766       0.0183995729092982
    1372.7380925317679612   -1055.4250320631260820       0.0185502446333399
    1384.5113169368300987   -1050.9845763293392338       0.0187014951433287
    1396.2905019660897779   -1046.4971304425632752       0.0188533280937988
    1408.0755972241315703   -1041.9627136016388249       0.0190057471367923
    1419.8665522902556404   -1037.3813452063666318       0.0191587559218439
    1431.6633167186905666   -1032.7530448574186721       0.0193123580959650
    1443.4658400388098016   -1028.0778323562603873       0.0194665573036287
    1455.2740717553492686   -1023.3557277050612129       0.0196213571867533
    1467.0879613486222297   -1018.5867511066142015       0.0197767613846874
    1478.9074582747362001   -1013.7709229642464379       0.0199327735341942
    1490.7325119658089534   -1008.9082638817307043       0.0200893972694358
    1502.5630718301802062   -1003.9987946631983959       0.0202466362219578
    1514.3990872526389921    -999.0425363130516416       0.0204044940206735
    1526.2405075946296620    -994.0395100358739455       0.0205629742918488
    1538.0872821944715270    -988.9897372363354862       0.0207220806590862
    1549.9393603675791837    -983.8932395191048954       0.0208818167433099
    1561.7966914066767004    -978.7500386887586501       0.0210421861627495
    1573.6592245820118023    -973.5601567496817097       0.0212031925329254
    1585.5269091415780167    -968.3236159059791817       0.0213648394666327
    1597.3996943113277212    -963.0404385613774139       0.0215271305739257
    1609.2775292953951976    -957.7106473191316809       0.0216900694621034
    1621.1603632763051337    -952.3342649819270491       0.0218536597356925
    1633.0481454151963590    -946.9113145517794692       0.0220179049964336
    1644.9408248520376219    -941.4418192299413022       0.0221828088432646
    1656.8383507058467785    -935.9258024167995700       0.0223483748723059
    1668.7406720749058877    -930.3632877117755697       0.0225146066768447
    1680.6477380369790353    -924.7542989132258526       0.0226815078473201
    1692.5594976495347055    -919.0988600183382005       0.0228490819713071
    1704.4758999499561014    -913.3969952230304443       0.0230173326335017
    1716.3968939557673821    -907.6487289218463275       0.0231862634157055
    1728.3224286648446650    -901.8540857078498902       0.0233558778968102
    1740.2524530556372611    -896.0130903725237204       0.0235261796527825
    1752.1869160873893634    -890.1257679056596999       0.0236971722566486
    1764.1257667003524148    -884.1921434952527079       0.0238688592784791
    1776.0689538160077063    -878.2122425273953468       0.0240412442853736
    1788.0164263372819278    -872.1860905861635729       0.0242143308414454
    1799.9681331487688567    -866.1137134535155155       0.0243881225078065
    1811.9240231169442268    -859.9951371091727879       0.0245626228425521
    1823.8840450903908277    -853.8303877305153264       0.0247378354007455
    1835.8481479000101899    -847.6194916924661129       0.0249137637344028
    1847.8162803592433647    -841.3624755673795335       0.0250904113924778
    1859.7883912642955693    -835.0593661249299657       0.0252677819208469
    1871.7644293943465073    -828.7101903319899066       0.0254458788622935
    1883.7443435117775152    -822.3149753525252663       0.0256247057564936
    1895.7280823623843844    -815.8737485474691766       0.0258042661399998
    1907.7155946756017784    -809.3865374746112593       0.0259845635462268
    1919.7068291647156002    -802.8533698884772321       0.0261656015054360
    1931.7017345270915030    -796.2742737402106741       0.0263473835447205
    1943.7002594443902126    -789.6492771774538824       0.0265299131879899
    1955.7023525827844423    -782.9784085442252035       0.0267131939559554
    1967.7079625931808096    -776.2616963808020500       0.0268972293661145
    1979.7170381114394786    -769.4991694235940258       0.0270820229327361
    1991.7295277585965323    -762.6908566050236686       0.0272675781668455
    2003.7453801410763390    -755.8367870534004851       0.0274538985762095
    2015.7645438509234737    -748.9369900927974868       0.0276409876653208
    2027.7869674660096280    -741.9914952429248842       0.0278288489353837
    2039.8125995502598471    -735.0003322190042354       0.0280174858842988
    2051.8413886538755833    -727.9635309316417988       0.0282069020066482
    2063.8732833135481997    -720.8811214866999535       0.0283971007936801
    2075.9082320526849799    -713.7531341851679372       0.0285880857332946
    2087.9461833816244507    -706.5795995230329254       0.0287798603100279
    2099.9870857978617096    -699.3605481911505422       0.0289724280050384
    2112.0308877862630652    -692.0960110751104821       0.0291657922960908
    2124.0775378192906828    -684.7860192551070213       0.0293599566575419
    2136.1269843572240461    -677.4306040058071403       0.0295549245603255
    2148.1791758483745980    -670.0297967962126222       0.0297506994719376
    2160.2340607293140238    -662.5836292895285169       0.0299472848564215
    2172.2915874250852539    -655.0921333430269442       0.0301446841743530
    2184.3517043494307472    -647.5553410079093055       0.0303429008828256
    2196.4143599050157718    -639.9732845291739523       0.0305419384354359
    2208.4795024836389530    -632.3459963454715762       0.0307418002822684
    2220.5470804664601019    -624.6735090889711728       0.0309424898698811
    2232.6170422242203131    -616.9558555852182735       0.0311440106412906
    2244.6893361174611528    -609.1930688529964755       0.0313463660359574
    2256.7639104967470303    -601.3851821041828316       0.0315495594897714
    2268.8407137028848410    -593.5322287436107445       0.0317535944350367
    2280.9196940671481570    -585.6342423689201269       0.0319584743004574
    2293.0007999114927770    -577.6912567704214325       0.0321642025111226
    2305.0839795487800075    -569.7033059309446799       0.0323707824884919
    2317.1691812830072195    -561.6704240256992762       0.0325782176503810
    2329.2563534095083924    -553.5926454221231552       0.0327865114109466
    2341.3454442151969488    -545.4700046797373716       0.0329956671806719
    2353.4364019787731195    -537.3025365500005819       0.0332056883663524
    2365.5291749709504074    -529.0902759761574998       0.0334165783710809
    2377.6237114546765952    -520.8332580930907625       0.0336283405942331
    2389.7199596853556613    -512.5315182271684762       0.0338409784314531
    2401.8178679110660596    -504.1850918960980721       0.0340544952746389
    2413.9173843727835447    -495.7940148087677699       0.0342688945119276
    2426.0184573046076366    -487.3583228650990122       0.0344841795276812
    2438.1210349339744425    -478.8780521558911687       0.0347003537024721
    2450.2250654818831208    -470.3532389626648182       0.0349174204130685
    2462.3304971631187072    -461.7839197575117964       0.0351353830324201
    2474.4372781864708486    -453.1701312029335327       0.0353542449296434
    2486.5453567549552645    -444.5119101516875162       0.0355740094700078
    2498.6546810660361189    -435.8092936466287028       0.0357946800149207
    2510.7651993118497558    -427.0623189205514336       0.0360162599219132
    2522.8768596794238874    -418.2710233960295909       0.0362387525446259
    2534.9896103508981469    -409.4354446852555611       0.0364621612327946
    2547.1033995037514615    -400.5556205898827784       0.0366864893322358
    2559.2181753110144200    -391.6315891008596850       0.0369117401848325
    2571.3338859414993749    -382.6633883982701718       0.0371379171285196
    2583.4504795600178113    -373.6510568511694714       0.0373650234972701
    2595.5679043276077209    -364.5946330174193690       0.0375930626210805
    2607.6861084017455141    -355.4941556435227312       0.0378220378259568
    2619.8050399365747580    -346.3496636644602518       0.0380519524338999
