                   X [km]                   Y [km]                 T [dias]
    -770.1543338477974885    -981.9181741396968164       0.0000000000000000
    -762.0087430100845722    -988.2772807556451653       0.0001060267650814
    -753.8342846878659884    -994.5994730466095461       0.0002120568192001
    -745.6310122667774749   -1000.8847097237052139       0.0003180934513717
    -737.3989793206344530   -1007.1329497393973043       0.0004241399505690
    -729.1382396110810760   -1013.3441522877698162       0.0005301996057004
    -720.8488470872396192   -1019.5182768047877744       0.0006362757055882
    -712.5308558853570275   -1025.6552829685670076       0.0007423715389475
    -704.1843203284520314   -1031.7551306996342646       0.0008484903943644
    -695.8092949259613533   -1037.8177801611907398       0.0009546355602747
    -687.4058343733814809   -1043.8431917593713933       0.0010608103249424
    -678.9739935519139635   -1049.8313261435025652       0.0011670179764381
    -670.5138275281063898   -1055.7821442063625454       0.0012732618026177
    -662.0253915534891576   -1061.6956070844316855       0.0013795450911008
    -653.5087410642204304   -1067.5716761581509218       0.0014858711292494
    -644.9639316807207479   -1073.4103130521721141       0.0015922432041461
    -636.3910192073103644   -1079.2114796356077022       0.0016986646025731
    -627.7900596318438602   -1084.9751380222803618       0.0018051386109903
    -619.1611091253466839   -1090.7012505709740253       0.0019116685155140
    -610.5042240416465802   -1096.3897798856714871       0.0020182576018956
    -601.8194609170060403   -1102.0406888158070160       0.0021249091554999
    -593.1068764697525921   -1107.6539404565053246       0.0022316264612836
    -584.3665275999090909   -1113.2294981488207668       0.0023384128037743
    -575.5984713888225315   -1118.7673254799806273       0.0024452714670486
    -566.8027650987902462   -1124.2673862836213630       0.0025522057347106
    -557.9794661726867844   -1129.7296446400239347       0.0026592188898710
    -549.1286322335860177   -1135.1540648763475474       0.0027663142151250
    -540.2503210843902934   -1140.5406115668668008       0.0028734949925312
    -531.3445907074473098   -1145.8892495331976988       0.0029807645035903
    -522.4114992641759727   -1151.1999438445320720       0.0030881260292234
    -513.4511050946820205   -1156.4726598178617678       0.0031955828497507
    -504.4634667173816069   -1161.7073630182096622       0.0033031382448700
    -495.4486428286155046   -1166.9040192588486207       0.0034107954936353
    -486.4066923022684250   -1172.0625946015304635       0.0035185578744356
    -477.3376741893820281   -1177.1830553567046991       0.0036264286649730
    -468.2416477177720253   -1182.2653680837383945       0.0037344111422419
    -459.1186722916388590   -1187.3094995911358183       0.0038425085825071
    -449.9688074911810531   -1192.3154169367542181       0.0039507242612828
    -440.7921130722058933   -1197.2830874280198259       0.0040590614533108
    -431.5886489657397078   -1202.2124786221397699       0.0041675234325394
    -422.3584752776349660   -1207.1035583263169428       0.0042761134721019
    -413.1016522881794231   -1211.9562945979564574       0.0043848348442954
    -403.8182404517013993   -1216.7706557448782405       0.0044936908205592
    -394.5083003961755708   -1221.5466103255187136       0.0046026846714535
    -385.1718929228265438   -1226.2841271491438420       0.0047118196666382
    -375.8090790057316326   -1230.9831752760439940       0.0048210990748512
    -366.4199197914234105   -1235.6437240177428976       0.0049305261638875
    -357.0044765984899300   -1240.2657429371954549       0.0050401042005774
    -347.5628109171741471   -1244.8492018489848761       0.0051498364507657
    -338.0949844089724365   -1249.3940708195234492       0.0052597261792897
    -328.6010589062316853   -1253.9003201672451269       0.0053697766499585
    -319.0810964117467847   -1258.3679204627999297       0.0054799911255314
    -309.5351590983530627   -1262.7968425292481243       0.0055903728676965
    -299.9633093085231508   -1267.1870574422475784       0.0057009251370496
    -290.3656095539583362   -1271.5385365302458922       0.0058116511930728
    -280.7421225151792328   -1275.8512513746632067       0.0059225542941133
    -271.0929110411190663   -1280.1251738100843340       0.0060336376973620
    -261.4180381487120712   -1284.3602759244372464       0.0061449046588322
    -251.7175670224796704   -1288.5565300591756568       0.0062563584333387
    -241.9915610141225102   -1292.7139088094636463       0.0063680022744758
    -232.2400836421021495   -1296.8323850243493780       0.0064798394345971
    -222.4631985912288314   -1300.9119318069497240       0.0065918731647931
    -212.6609697122449916   -1304.9525225146157936       0.0067041067148709
    -202.8334610214083966   -1308.9541307591152872       0.0068165433333326
    -192.9807367000730665   -1312.9167304068041631       0.0069291862673540
    -183.1028610942715318   -1316.8402955787901192       0.0070420387627635
    -173.1998987142939086   -1320.7248006511090352       0.0071551040640209
    -163.2719142342667169   -1324.5702202548923196       0.0072683854141962
    -153.3189724917298804   -1328.3765292765274353       0.0073818860549487
    -143.3411384872146073   -1332.1437028578250192       0.0074956092265051
    -133.3384773838178603   -1335.8717163961819097       0.0076095581676391
    -123.3110545067768982   -1339.5605455447387158       0.0077237361156498
    -113.2589353430425234   -1343.2101662125437542       0.0078381463063410
    -103.1821855408533537   -1346.8205545647051622       0.0079527919739993
     -93.0808709093029023   -1350.3916870225502862       0.0080676763513739
     -82.9550574179143183   -1353.9235402637780226       0.0081828026696547
     -72.8048111962062876   -1357.4160912226102482       0.0082981741584518
     -62.6301985332639219   -1360.8693170899459801       0.0084137940457739
     -52.4312858773028339   -1364.2831953135068943       0.0085296655580076
     -42.2081398352368922   -1367.6577035979830725       0.0086457919198963
     -31.9608271722440023   -1370.9928199051860247       0.0087621763545188
     -21.6894148113283443   -1374.2885224541853404       0.0088788220832686
     -11.3939698328841441   -1377.5447897214519344       0.0089957323258328
      -1.0745594742579232   -1380.7616004410028836       0.0091129103001709
       9.2687488706920487   -1383.9389336045348955       0.0092303592224939
      19.6358876520337589   -1387.0767684615673261       0.0093480823072434
      30.0267891642038265   -1390.1750845195731472       0.0094660827670705
      40.4413855464510448   -1393.2338615441124148       0.0095843638128147
      50.8796087832756854   -1396.2530795589668742       0.0097029286534832
      61.3413907048781084   -1399.2327188462716094       0.0098217804962296
      71.8266629876010398   -1402.1727599466405536       0.0099409225463334
      82.3353571543763962   -1405.0731836592938180       0.0100603580071787
      92.8674045751741204   -1407.9339710421872951       0.0101800900802333
     103.4227364674473790   -1410.7551034121281646       0.0103001219650280
     114.0012838965849227   -1413.5365623449092709       0.0104204568591356
     124.6029777763580455   -1416.2783296754148523       0.0105410979581500
     135.2277488693755174   -1418.9803874977499163       0.0106620484556653
     145.8755277875327181   -1421.6427181653550633       0.0107833115432551
     156.5462449924652617   -1424.2653042911181274       0.0109048904104513
     167.2398307960058901   -1426.8481287474899091       0.0110267882447237
     177.9562153606345589   -1429.3911746665983173       0.0111490082314590
     188.6953286999391253   -1431.8944254403552350       0.0112715535539400
     199.4571006790707486   -1434.3578647205645211       0.0113944273933246
     210.2414610152009118   -1436.7814764190327423       0.0115176329286255
     221.0483392779830467   -1439.1652447076714907       0.0116411733366891
     231.8776648900092709   -1441.5091540186006114       0.0117650517921746
     242.7293671272721269   -1443.8131890442487020       0.0118892714675336
     253.6033751196301012   -1446.0773347374579316       0.0120138355329896
     264.4996178512652705   -1448.3015763115777190       0.0121387471565164
     275.4180241611493329   -1450.4858992405620484       0.0122640095038184
     286.3585227435103207   -1452.6302892590661031       0.0123896257383092
     297.3210421482944525   -1454.7347323625372155       0.0125155990210915
     308.3055107816349505   -1456.7992148073092267       0.0126419325109361
     319.3118569063206564   -1458.8237231106893432       0.0127686293642612
     330.3400086422615232   -1460.8082440510477227       0.0128956927351123
     341.3898939669606420   -1462.7527646679009194       0.0130231257751408
     352.4614407159839402   -1464.6572722620039713       0.0131509316335843
     363.5545765834301051   -1466.5217543954238408       0.0132791134572453
     374.6692291224050564   -1468.3461988916285463       0.0134076743904711
     385.8053257454933487   -1470.1305938355594662       0.0135366175751332
     396.9627937252327001   -1471.8749275737184234       0.0136659461506064
     408.1415601945905678   -1473.5791887142333962       0.0137956632537489
     419.3415521474361753   -1475.2433661269410550       0.0139257720188814
     430.5626964390205558   -1476.8674489434531552       0.0140562755777666
     441.8049197864539224   -1478.4514265572345266       0.0141871770595891
     453.0681487691837788   -1479.9952886236662835       0.0143184795909347
     464.3523098294739384   -1481.4990250601147181       0.0144501862957699
     475.6573292728839419   -1482.9626260460011054       0.0145823002954218
     486.9831332687548979   -1484.3860820228596822       0.0147148247085575
     498.3296478506847507   -1485.7693836944044961       0.0148477626511636
     509.6967989170190094   -1487.1125220265885218       0.0149811172365263
     521.0845122313264710   -1488.4154882476634612       0.0151148915752107
     532.4927134228910290   -1489.6782738482345394       0.0152490887750404
     543.9213279871944451   -1490.9008705813221241       0.0153837119410776
     555.3702812864020188   -1492.0832704624060625       0.0155187641756027
     566.8394985498528058   -1493.2254657694875277       0.0156542485780935
     578.3289048745447190   -1494.3274490431331287       0.0157901682452059
     589.8384252256250875   -1495.3892130865260697       0.0159265262707529
     601.3679844368820113   -1496.4107509655127615       0.0160633257456848
     612.9175072112342377   -1497.3920560086487512       0.0162005697580687
     624.4869181212210378   -1498.3331218072396496       0.0163382613930688
     636.0761416094982224   -1499.2339422153879696       0.0164764037329258
     647.6851019893291550   -1500.0945113500270054       0.0166149998569369
     659.3137234450796313   -1500.9148235909647155       0.0167540528414358
     670.9619300327135534   -1501.6948735809180562       0.0168935657597726
     682.6296456802881494   -1502.4346562255466324       0.0170335416822937
     694.3167941884520360   -1503.1341666934886234       0.0171739836763214
     706.0232992309411202   -1503.7934004163914778       0.0173148948061347
     717.7490843550788213   -1504.4123530889412450       0.0174562781329483
     729.4940729822716321   -1504.9910206688887229       0.0175981367148933
     741.2581884085165029   -1505.5293993770815177       0.0177404736069971
     753.0413538048941291   -1506.0274856974840532       0.0178832918611631
     764.8434922180754256   -1506.4852763772003073       0.0180265945261513
     776.6645265708216357   -1506.9027684264972322       0.0181703846475579
     788.5043796624888728   -1507.2799591188233990       0.0183146652677958
     800.3629741695330040   -1507.6168459908287787       0.0184594394260744
     812.2402326460121458   -1507.9134268423756566       0.0186047101583801
     824.1360775240964358   -1508.1696997365595507       0.0187504804974560
     836.0504311145699603   -1508.3856629997153505       0.0188967534727827
     847.9832156073406395   -1508.5613152214343700       0.0190435321105579
     859.9343530719487489   -1508.6966552545688955       0.0191908194336771
     871.9037654580758954   -1508.7916822152435543       0.0193386184617138
     883.8913745960522874   -1508.8463954828562237       0.0194869322108992
     895.8971021973709412   -1508.8607947000862168       0.0196357636941036
     907.9208698551951784   -1508.8348797728951922       0.0197851159208155
     919.9625990448740822   -1508.7686508705298820       0.0199349918971229
     932.0222111244536336   -1508.6621084255150436       0.0200853946256933
     944.0996273351900072   -1508.5152531336573247       0.0202363271057539
     956.1947688020637770   -1508.3280859540373058       0.0203877923330722
     968.3075565342979871   -1508.1006081090033604       0.0205397932999368
     980.4379114258688332   -1507.8328210841650616       0.0206923329951371
     992.5857542560264619   -1507.5247266283820409       0.0208454144039442
    1004.7510056898116773   -1507.1763267537526190       0.0209990405080918
    1016.9335862785725340   -1506.7876237356019828       0.0211532142857558
    1029.1334164604852504   -1506.3586201124674062       0.0213079387115356
    1041.3504165610700056   -1505.8893186860777860       0.0214632167564346
    1053.5845067937166277   -1505.3797225213415913       0.0216190513878402
    1065.8356072602025506   -1504.8298349463216255       0.0217754455695053
    1078.1036379512133863   -1504.2396595522161533       0.0219324022615282
    1090.3885187468699769   -1503.6092001933348001       0.0220899244203336
    1102.6901694172438511   -1502.9384609870714939       0.0222480149986535
    1115.0085096228913244   -1502.2274463138801366       0.0224066769455074
    1127.3434589153703200   -1501.4761608172468641       0.0225659132061835
    1139.6949367377690123   -1500.6846094036552586       0.0227257267222190
    1152.0628624252308327   -1499.8527972425583812       0.0228861204313815
    1164.4471552054817494   -1498.9807297663430745       0.0230470972676494
    1176.8477341993580012   -1498.0684126702951744       0.0232086601611926
    1189.2645184213340599   -1497.1158519125626754       0.0233708120383538
    1201.6974267800521829   -1496.1230537141159402       0.0235335558216292
    1214.1463780788494660   -1495.0900245587067730       0.0236968944296493
    1226.6112910162921708   -1494.0167711928277186       0.0238608307771599
    1239.0920841867034596   -1492.9033006256668159       0.0240253677750031
    1251.5886760806949951   -1491.7496201290614408       0.0241905083300984
    1264.1009850857030870   -1490.5557372374519218       0.0243562553454235
    1276.6289294865155171   -1489.3216597478317453       0.0245226117199953
    1289.1724274658129161   -1488.0473957196975334       0.0246895803488514
    1301.7313971046949064   -1486.7329534749937920       0.0248571641230307
    1314.3057563832203414   -1485.3783415980608424       0.0250253659295549
    1326.8954231809425437   -1483.9835689355800241       0.0251941886514091
    1339.5003152774431783   -1482.5486445965120765       0.0253636351675237
    1352.1203503528734018   -1481.0735779520407505       0.0255337083527551
    1364.7554459884850075   -1479.5583786355107350       0.0257044110778670
    1377.4055196671747581   -1478.0030565423630833       0.0258757462095118
    1390.0704887740221238   -1476.4076218300742767       0.0260477166102118
    1402.7502705968245209   -1474.7720849180871028       0.0262203251383404
    1415.4447823266436899   -1473.0964564877415341       0.0263935746481035
    1428.1539410583416156   -1471.3807474822090171       0.0265674679895211
    1440.8776637911250873   -1469.6249691064174385       0.0267420080084084
    1453.6158674290863928   -1467.8291328269792757       0.0269171975463570
    1466.3684687817449230   -1465.9932503721167905       0.0270930394407170
    1479.1353845645921865   -1464.1173337315847220       0.0272695365245779
    1491.9165313996359146   -1462.2013951565925254       0.0274466916267504
    1504.7118258159441666   -1460.2454471597254724       0.0276245075717477
    1517.5211842501885258   -1458.2495025148616605       0.0278029871797673
    1530.3445230471932064   -1456.2135742570865204       0.0279821332666724
    1543.1817584604780222   -1454.1376756826127803       0.0281619486439737
    1556.0328066528088584   -1452.0218203486872426       0.0283424361188106
    1568.8975836967413215   -1449.8660220735107487       0.0285235984939334
    1581.7760055751721211   -1447.6702949361390438       0.0287054385676848
    1594.6679881818865852   -1445.4346532763947835       0.0288879591339815
    1607.5734473221073131   -1443.1591116947765840       0.0290711629822961
    1620.4922987130439651   -1440.8436850523582962       0.0292550528976388
    1633.4244579844464624   -1438.4883884706950994       0.0294396316605393
    1646.3698406791490925   -1436.0932373317241399       0.0296249020470284
    1659.3283622536346229   -1433.6582472776660779       0.0298108668286203
    1672.2999380785702215   -1431.1834342109189038       0.0299975287722941
    1685.2844834393727069   -1428.6688142939551653       0.0301848906404759
    1698.2819135367594754   -1426.1144039492207867       0.0303729551910209
    1711.2921434872953341   -1423.5202198590225180       0.0305617251771950
    1724.3150883239586619   -1420.8862789654208427       0.0307512033476572
    1737.3506629966827859   -1418.2125984701190191       0.0309413924464414
    1750.3987823729210049   -1415.4991958343523493       0.0311322952129387
    1763.4593612382027459   -1412.7460887787717638       0.0313239143818793
    1776.5323142966817613   -1409.9532952833301351       0.0315162526833147
    1789.6175561717043365   -1407.1208335871638155       0.0317093128426001
    1802.7150014063563503   -1404.2487221884732662       0.0319030975803761
    1815.8245644640289811   -1401.3369798444032313       0.0320976096125514
    1828.9461597289728161   -1398.3856255709188190       0.0322928516502849
    1842.0797015068601468   -1395.3946786426836297       0.0324888263999681
    1855.2251040253424890   -1392.3641585929306075       0.0326855365632070
    1868.3822814346099221   -1389.2940852133369845       0.0328829848368051
    1881.5511478079567951   -1386.1844785538964970       0.0330811739127452
    1894.7316171423362903   -1383.0353589227804605       0.0332801064781723
    1907.9236033589249928   -1379.8467468862172609       0.0334797852153757
    1921.1270203036879138   -1376.6186632683493372       0.0336802128017716
    1934.3417817479355563   -1373.3511291510994852       0.0338813919098857
    1947.5678013888918940   -1370.0441658740317052       0.0340833252073357
    1960.8049928502559851   -1366.6977950342177337       0.0342860153568136
    1974.0532696827624477   -1363.3120384860847025       0.0344894650160689
    1987.3125453647560335   -1359.8869183412871280       0.0346936768378907
    2000.5827333027452823   -1356.4224569685493407       0.0348986534700907
    2013.8637468319757318   -1352.9186769935270149       0.0351043975554857
    2027.1554992169915295   -1349.3756012986571022       0.0353109117318804
    2040.4579036522052320   -1345.7932530230077646       0.0355181986320502
    2053.7708732624619188   -1342.1716555621283078       0.0357262608837242
    2067.0943211036083085   -1338.5108325678954770       0.0359351011095676
    2080.4281601630618752   -1334.8108079483615711       0.0361447219271650
    2093.7723033603720069   -1331.0716058675941440       0.0363551259490030
