                   X [km]                   Y [km]                 T [dias]
    -344.3792407303472487   -1199.4598522686662818       0.0000000000000000
    -334.0907262295665419   -1202.3885798729452290       0.0001078601179452
    -323.7888722447636951   -1205.2706820774349126       0.0002157239698093
    -313.4737224893004850   -1208.1061466526525692       0.0003235952894952
    -303.1453207329551560   -1210.8949615670057938       0.0004314778108743
    -292.8037108017387027   -1213.6371149868521115       0.0005393752677702
    -282.4489365777064904   -1216.3325952765421789       0.0006472913939434
    -272.0810419987739692   -1218.9813909984763995       0.0007552299230751
    -261.7000710585293177   -1221.5834909131447148       0.0008631945887514
    -251.3060678060473947   -1224.1388839791841292       0.0009711891244475
    -240.8990763457016442   -1226.6475593534164545       0.0010792172635118
    -230.4791408369783312   -1229.1095063909001510       0.0011872827391503
    -220.0463054942892995   -1231.5247146449755746       0.0012953892844104
    -209.6006145867820010   -1233.8931738673045402       0.0014035406321652
    -199.1421124381541858   -1236.2148740079171603       0.0015117405150979
    -188.6708434264649838   -1238.4898052152559558       0.0016199926656856
    -178.1868519839470082   -1240.7179578362151915       0.0017283008161836
    -167.6901825968157027   -1242.8993224161813487       0.0018366686986096
    -157.1808798050840323   -1245.0338896990740523       0.0019451000447279
    -146.6589882023706934   -1247.1216506273883624       0.0020535985860335
    -136.1245524357121042   -1249.1625963422297900       0.0021621680537361
    -125.5776172053728459   -1251.1567181833481754       0.0022708121787448
    -115.0182272646557635   -1253.1040076891849822       0.0023795346916516
    -104.4464274197117533   -1255.0044565968973984       0.0024883393227159
     -93.8622625293511845   -1256.8580568424054036       0.0025972298018488
     -83.2657775048516555   -1258.6648005604149603       0.0027062098585970
     -72.6570173097677383   -1260.4246800844571226       0.0028152832221272
     -62.0360269597412923   -1262.1376879469203232       0.0029244536212102
     -51.4028515223102644   -1263.8038168790790223       0.0030337247842048
     -40.7575361167158405   -1265.4230598111300878       0.0031431004390426
     -30.1001259137131498   -1266.9954098722180333       0.0032525843132115
     -19.4306661353776242   -1268.5208603904654865       0.0033621801337404
      -8.7492020549151164   -1269.9994048930002464       0.0034718916271831
       1.9442210035316709   -1271.4310371059877980       0.0035817225196025
      12.6495576650755872   -1272.8157509546485926       0.0036916765365550
      23.3667625042761422   -1274.1535405632960192       0.0038017574030746
      34.0957900453336222   -1275.4444002553514110       0.0039119688436567
      44.8365947622822318   -1276.6883245533708759       0.0040223145822431
      55.5891310791813638   -1277.8853081790696251       0.0041327983422055
      66.3533533703114387   -1279.0353460533469843       0.0042434238463298
      77.1292159603659684   -1280.1384332963016277       0.0043541948168007
      87.9166731246449160   -1281.1945652272565894       0.0044651149751856
      98.7156790892511680   -1282.2037373647779077       0.0045761880424188
     109.5261880312815066   -1283.1659454266921330       0.0046874177387857
     120.3481540790236295   -1284.0811853301111114       0.0047988077839072
     131.1815313121500139   -1284.9494531914408526       0.0049103618967238
     142.0262737619120799   -1285.7707453263994921       0.0050220837954797
     152.8823354113357595   -1286.5450582500409382       0.0051339771977074
     163.7496701954167690   -1287.2723886767573731       0.0052460458202113
     174.6282320013169169   -1287.9527335203060829       0.0053582933790526
     185.5179746685575140   -1288.5860898938094579       0.0054707235895330
     196.4188519892180977   -1289.1724551097786389       0.0055833401661795
     207.3308177081296719   -1289.7118266801169284       0.0056961468227279
     218.2538255230733171   -1290.2042023161368434       0.0058091472721076
     229.1878290849759594   -1290.6495799285619341       0.0059223452264259
     240.1327819981055995   -1291.0479576275445197       0.0060357443969517
     251.0886378202704634   -1291.3993337226681888       0.0061493484941002
     262.0553500630145436   -1291.7037067229543936       0.0062631612274172
     273.0328721918154997   -1291.9610753368713176       0.0063771863055631
     284.0211576262819904   -1292.1714384723413787       0.0064914274362972
     295.0201597403501523   -1292.3347952367394100       0.0066058883264620
     306.0298318624849685   -1292.4511449369015281       0.0067205726819678
     317.0501272758730238   -1292.5204870791267240       0.0068354842077763
     328.0809992186256636   -1292.5428213691789097       0.0069506266078855
     339.1224008839742510   -1292.5181477122864635       0.0070660035853137
     350.1742854204710511   -1292.4464662131485966       0.0071816188420837
     361.2366059321857392   -1292.3277771759283041       0.0072974760792075
     372.3093154789049208   -1292.1620811042494097       0.0074135789966700
     383.3923670763340965   -1291.9493787012047505       0.0075299312934138
     394.4857136962941695   -1291.6896708693445817       0.0076465366673233
     405.5893082669188630   -1291.3829587106722556       0.0077633988152090
     416.7031036728615732   -1291.0292435266476332       0.0078805214327919
     427.8270527554881824   -1290.6285268181713946       0.0079979082146876
     438.9611083130813540   -1290.1808102855857214       0.0081155628543910
     450.1052231010380069   -1289.6860958286665664       0.0082334890442603
     461.2593498320715071   -1289.1443855466081914       0.0083516904755014
     472.4234411764135757   -1288.5556817380268058       0.0084701708381523
     483.5974497620125589   -1287.9199869009396480       0.0085889338210676
     494.7813281747345968   -1287.2373037327613474       0.0087079831119025
     505.9750289585672931   -1286.5076351302870989       0.0088273223970973
     517.1785046158178147   -1285.7309841896842499       0.0089469553618619
     528.3917076073175849   -1284.9073542064802496       0.0090668856901598
     539.6145903526211214   -1284.0367486755433220       0.0091871170646931
     550.8471052302111275   -1283.1191712910726892       0.0093076531668863
     562.0892045776969326   -1282.1546259465803814       0.0094284976768706
     573.3408406920189009   -1281.1431167348739564       0.0095496542734690
     584.6019658296509078   -1280.0846479480419475       0.0096711266341799
     595.8725322068037258   -1278.9792240774377206       0.0097929184351621
     607.1524919996231802   -1277.8268498136474136       0.0099150333512186
     618.4417973443997880   -1276.6275300464888005       0.0100374750557817
     629.7404003377671415   -1275.3812698649769573       0.0101602472208969
     641.0482530369066581   -1274.0880745573078912       0.0102833535172073
     652.3653074597519890   -1272.7479496108360308       0.0104067976139385
     663.6915155851879717   -1271.3609007120462593       0.0105305831788826
     675.0268293532632242   -1269.9269337465389071       0.0106547138783826
     686.3712006653850040   -1268.4460547989967836       0.0107791933773173
     697.7245813845280509   -1266.9182701531610746       0.0109040253390852
     709.0869233354395647   -1265.3435862918092880       0.0110292134255895
     720.4581783048386114   -1263.7220098967184185       0.0111547612972219
     731.8382980416281498   -1262.0535478486488046       0.0112806726128477
     743.2272342570917090   -1260.3382072273018366       0.0114069510297901
     754.6249386251045053   -1258.5759953113015399       0.0115336002038143
     766.0313627823366005   -1256.7669195781577400       0.0116606237891124
     777.4464583284573109   -1254.9109877042340031       0.0117880254382880
     788.8701768263401846   -1253.0082075647162583       0.0119158088023401
     800.3024698022711618   -1251.0585872335802833       0.0120439775306483
     811.7432887461498012   -1249.0621349835557794       0.0121725352709569
     823.1925851117005095   -1247.0188592860924928       0.0123014856693594
     834.6503103166752453   -1244.9287688113256536       0.0124308323702833
     846.1164157430586101   -1242.7918724280325478       0.0125605790164746
     857.5908527372780554   -1240.6081792036050047       0.0126907292489818
     869.0735726104069272   -1238.3776984040030129       0.0128212867071414
     880.5645266383722856   -1236.1004394937183406       0.0129522550285616
     892.0636660621624969   -1233.7764121357345175       0.0130836378491073
     903.5709420880308471   -1231.4056261914840888       0.0132154388028847
     915.0863058877077947   -1228.9880917208095070       0.0133476615222255
     926.6097085986040156   -1226.5238189819190211       0.0134803096376719
     938.1411013240194734   -1224.0128184313421116       0.0136133867779611
     949.6804351333480554   -1221.4551007238846978       0.0137468965700096
     961.2276610622930093   -1218.8506767125913939       0.0138808426388984
     972.7827301130643036   -1216.1995574486861642       0.0140152286078569
     984.3455932545932683   -1213.5017541815373079       0.0141500580982482
     995.9162014227393911   -1210.7572783586024343       0.0142853347295533
    1007.4945055204970004   -1207.9661416253845800       0.0144210621193557
    1019.0804564182072909   -1205.1283558253801402       0.0145572438833265
    1030.6740049537597770   -1202.2439330000286191       0.0146938836352087
    1042.2751019328088660   -1199.3128853886619254       0.0148309849868017
    1053.8836981289784944   -1196.3352254284557148       0.0149685515479467
    1065.4997442840701751   -1193.3109657543686808       0.0151065869265104
    1077.1231911082743409   -1190.2401191990982170       0.0152450947283705
    1088.7539892803770272   -1187.1226987930172072       0.0153840785573999
    1100.3920894479738308   -1183.9587177641294602       0.0155235420154518
    1112.0374422276729547   -1180.7481895380005881       0.0156634887023440
    1123.6899982053107578   -1177.4911277377120769       0.0158039222158440
    1135.3497079361545730   -1174.1875461837960302       0.0159448461516535
    1147.0165219451205303   -1170.8374588941815091       0.0160862641033933
    1158.6903907269791034   -1167.4408800841351876       0.0162281796625877
    1170.3712647465622467   -1163.9978241661933680       0.0163705964186499
    1182.0590944389800825   -1160.5083057501096846       0.0165135179588661
    1193.7538302098284930   -1156.9723396427934858       0.0166569478683808
    1205.4554224353955760   -1153.3899408482345734       0.0168008897301812
    1217.1638214628808328   -1149.7611245674577276       0.0169453471250822
    1228.8789776105934379   -1146.0859061984413074       0.0170903236317111
    1240.6008411681800681   -1142.3643013360647274       0.0172358228264926
    1252.3293623968183965   -1138.5963257720336514       0.0173818482836336
    1264.0644915294381008   -1134.7819954948176928       0.0175284035751075
    1275.8061787709311830   -1130.9213266895810648       0.0176754922706400
    1287.5543742983609263   -1127.0143357381150508       0.0178231179376931
    1299.3090282611749444   -1123.0610392187645630       0.0179712841414504
    1311.0700907814148195   -1119.0614539063640223       0.0181199944448018
    1322.8375119539300613   -1115.0155967721605066       0.0182692524083286
    1334.6112418465879728   -1110.9234849837446291       0.0184190615902882
    1346.3912305004873815   -1106.7851359049782332       0.0185694255465989
    1358.1774279301705519   -1102.6005670959200415       0.0187203478308250
    1369.9697841238314595   -1098.3697963127469848       0.0188718319941618
    1381.7682490435308864   -1094.0928415076862166       0.0190238815854202
    1393.5727726254135632   -1089.7697208289348509       0.0191765001510122
    1405.3833047799114411   -1085.4004526205833372       0.0193296912349350
    1417.1997953919601514   -1080.9850554225358792       0.0194834583787569
    1429.0221943212143287   -1076.5235479704344925       0.0196378051216016
    1440.8504514022581589   -1072.0159491955816975       0.0197927350001335
    1452.6845164448168362   -1067.4622782248522981       0.0199482515485426
    1464.5243392339707498   -1062.8625543806197129       0.0201043582985294
    1476.3698695303717159   -1058.2167971806720743       0.0202610587792902
    1488.2210570704469319   -1053.5250263381244622       0.0204183565175019
    1500.0778515666265776   -1048.7872617613454622       0.0205762550373070
    1511.9402027075429942   -1044.0035235538625784       0.0207347578602988
    1523.8080601582528288   -1039.1738320142817429       0.0208938685055064
    1535.6813735604480371   -1034.2982076362009138       0.0210535904893797
    1547.5600925326675679   -1029.3766711081223093       0.0212139273257746
    1559.4441666705154148   -1024.4092433133648683       0.0213748825259381
    1571.3335455468720738   -1019.3959453299763709       0.0215364595984930
    1583.2281787121073648   -1014.3367984306427161       0.0216986620494237
    1595.1280156942973463   -1009.2318240825986777       0.0218614933820609
    1607.0330059994348630   -1004.0810439475359317       0.0220249570970666
    1618.9430991116491896    -998.8844798815126751       0.0221890566924196
    1630.8582444934145315    -993.6421539348594933       0.0223537956634004
    1642.7783915857673946    -988.3540883520843181       0.0225191775025767
    1654.7034898085214536    -983.0203055717831830       0.0226852056997881
    1666.6334885604799183    -977.6408282265388152       0.0228518837421315
    1678.5683372196540404    -972.2156791428288898       0.0230192151139467
    1690.5079851434752527    -966.7448813409266677       0.0231872032968008
    1702.4523816690084459    -961.2284580348074314       0.0233558517694743
    1714.4014761131734303    -955.6664326320437794       0.0235251640079456
    1726.3552177729495725    -950.0588287337095608       0.0236951434853768
    1738.3135559256006673    -944.4056701342818769       0.0238657936720985
    1750.2764398288861685    -938.7069808215354669       0.0240371180355956
    1762.2438187212762841    -932.9627849764457324       0.0242091200404921
    1774.2156418221677541    -927.1731069730817580       0.0243818031485366
    1786.1918583321000824    -921.3379713785059266       0.0245551708185878
    1798.1724174329681318    -915.4574029526679624       0.0247292265065994
    1810.1572682882447225    -909.5314266483015899       0.0249039736656057
    1822.1463600431873147    -903.5600676108172138       0.0250794157457070
    1834.1396418250587885    -897.5433511781941434       0.0252555561940550
    1846.1370627433452682    -891.4813028808769104       0.0254323984548377
    1858.1385718899671247    -885.3739484416636287       0.0256099459692654
    1870.1441183394965719    -879.2213137755961725       0.0257882021755558
    1882.1536511493779926    -873.0234249898537655       0.0259671705089193
    1894.1671193601373488    -866.7803083836400901       0.0261468544015447
    1906.1844719956029621    -860.4919904480714195       0.0263272572825845
    1918.2056580631222005    -854.1584978660645220       0.0265083825781403
    1930.2306265537729359    -847.7798575122237708       0.0266902337112484
    1942.2593264425856887    -841.3560964527276838       0.0268728141018650
    1954.2917066887539477    -834.8872419452106897       0.0270561271668520
    1966.3277162358631358    -828.3733214386541022       0.0272401763199625
    1978.3673040120888800    -821.8143625732617465       0.0274249649718260
    1990.4104189304273405    -815.2103931803488877       0.0276104965299341
    2002.4570098889123528    -808.5614412822218355       0.0277967743986263
    2014.5070257708182453    -801.8675350920565279       0.0279838019790750
    2026.5604154448967620    -795.1287030137843885       0.0281715826692717
    2038.6171277655780614    -788.3449736419672718       0.0283601198640120
    2050.6771115731949067    -781.5163757616777502       0.0285494169548817
    2062.7403156941986708    -774.6429383483756510       0.0287394773302419
    2074.8066889413739773    -767.7246905677881159       0.0289303043752152
    2086.8761801140617536    -760.7616617757837503       0.0291219014716708
    2098.9487379983702340    -753.7538815182468852       0.0293142719982103
    2111.0243113673941480    -746.7013795309528632       0.0295074193301538
    2123.1028489814343629    -739.6041857394470753       0.0297013468395248
    2135.1842995882157084    -732.4623302589085370       0.0298960578950367
    2147.2686119230966142    -725.2758433940294935       0.0300915558620778
    2159.3557347092978489    -718.0447556388837711       0.0302878441026975
    2171.4456166581107937    -710.7690976767980828       0.0304849259755919
    2183.5382064691243613    -703.4489003802226534       0.0306828048360894
    2195.6334528304314517    -696.0841948105974097       0.0308814840361366
    2207.7313044188563254    -688.6750122182236282       0.0310809669242841
    2219.8317099001669703    -681.2213840421294435       0.0312812568456723
    2231.9346179292952002    -673.7233419099366074       0.0314823571420171
    2244.0399771505517492    -666.1809176377267931       0.0316842711515957
    2256.1477361978522822    -658.5941432299055123       0.0318870022092326
    2268.2578436949211209    -650.9630508790680778       0.0320905536462854
    2280.3702482555227107    -643.2876729658612476       0.0322949287906305
    2292.4848984836762611    -635.5680420588466859       0.0325001309666492
    2304.6017429738662941    -627.8041909143638577       0.0327061634952134
    2316.7207303112704722    -619.9961524763880334       0.0329130296936718
    2328.8418090719724205    -612.1439598763926142       0.0331207328758353
    2340.9649278231831886    -604.2476464332096384       0.0333292763519637
    2353.0900351234554364    -596.3072456528858538       0.0335386634287507
    2365.2170795229030773    -588.3227912285409502       0.0337488974093110
    2377.3460095634241043    -580.2943170402273836       0.0339599815931650
    2389.4767737789143212    -572.2218571547831516       0.0341719192762262
    2401.6093206954819834    -564.1054458256888893       0.0343847137507858
    2413.7435988316765361    -555.9451174929215540       0.0345983683054998
    2425.8795566987005259    -547.7409067828111802       0.0348128862253747
    2438.0171428006246970    -539.4928485078891072       0.0350282707917534
    2450.1563056346171834    -531.2009776667443930       0.0352445252823013
    2462.2969936911486002    -522.8653294438754529       0.0354616529709926
    2474.4391554542244194    -514.4859392095340809       0.0356796571280965
    2486.5827394015936989    -506.0628425195864111       0.0358985410201627
    2498.7276940049691802    -497.5960751153515389       0.0361183079100083
    2510.8739677302514792    -489.0856729234583895       0.0363389610567036
    2523.0215090377391789    -480.5316720556854762       0.0365605037155581
    2535.1702663823552939    -471.9341088088135052       0.0367829391381070
    2547.3201882138632755    -463.2930196644705347       0.0370062705720972
    2559.4712229770839258    -454.6084412889715622       0.0372305012614737
    2571.6233191121154960    -445.8804105331720962       0.0374556344463657
    2583.7764250545560571    -437.1089644323042194       0.0376816733630729
    2595.9304892357099561    -428.2941402058236804       0.0379086212440516
    2608.0854600828274670    -419.4359752572503908       0.0381364813179015
