                   X [km]                   Y [km]                 T [dias]
    -784.6968283641782591   -1004.3684654003045580       0.0000000000000000
    -776.4671059041238550   -1010.7685283959068556       0.0001082027146655
    -768.2086328467095200   -1017.1316819988195448       0.0002164086968588
    -759.9214629462435369   -1023.4578847913479649       0.0003246212140867
    -751.6056501438209807   -1029.7470955963062806       0.0004328435338133
    -743.2612485669760645   -1035.9992734772940821       0.0005410789234387
    -734.8883125293242529   -1042.2143777389553634       0.0006493306502782
    -726.4868965302126753   -1048.3923679272447771       0.0007576019815407
    -718.0570552543649683   -1054.5332038296942301       0.0008658961843075
    -709.5988435715223659   -1060.6368454756704978       0.0009742165255110
    -701.1123165360913845   -1066.7032531366396597       0.0010825662719134
    -692.5975293867809341   -1072.7323873264219856       0.0011909486900856
    -684.0545375462445463   -1078.7242088014488672       0.0012993670463858
    -675.4833966207216918   -1084.6786785610231618       0.0014078246069383
    -666.8841623996729595   -1090.5957578475668015       0.0015163246376122
    -658.2568908554164864   -1096.4754081468774984       0.0016248704040002
    -649.6016381427682518   -1102.3175911883770368       0.0017334651713972
    -640.9184605986687302   -1108.1222689453604744       0.0018421122047793
    -632.2074147418255734   -1113.8894036352467083       0.0019508147687823
    -623.4685572723381028   -1119.6189577198197185       0.0020595761276806
    -614.7019450713321476   -1125.3108939054761777       0.0021683995453659
    -605.9076352005876061   -1130.9651751434666949       0.0022772882853259
    -597.0856849021695325   -1136.5817646301379682       0.0023862456106232
    -588.2361515980543345   -1142.1606258071733464       0.0024952747838739
    -579.3590928897541517   -1147.7017223618254320       0.0026043790672266
    -570.4545665579460092   -1153.2050182271607355       0.0027135617223408
    -561.5226305620915355   -1158.6704775822872762       0.0028228260103659
    -552.5633430400623638   -1164.0980648525915058       0.0029321751919202
    -543.5767623077606459   -1169.4877447099675010       0.0030416125270692
    -534.5629468587403608   -1174.8394820730504762       0.0031511412753046
    -525.5219553638245316   -1180.1532421074414287       0.0032607646955232
    -516.4538466707266480   -1185.4289902259354221       0.0033704860460055
    -507.3586798036641312   -1190.6666920887482775       0.0034803085843947
    -498.2365139629768578   -1195.8663136037357617       0.0035902355676753
    -489.0874085247396579   -1201.0278209266193699       0.0037002702521518
    -479.9114230403777128   -1206.1511804612068772       0.0038104158934279
    -470.7086172362782577   -1211.2363588596072077       0.0039206757463850
    -461.4790510134013175   -1216.2833230224528052       0.0040310530651612
    -452.2227844468895910   -1221.2920400991079077       0.0041415511031298
    -442.9398777856793572   -1226.2624774878911467       0.0042521731128785
    -433.6303914521060392   -1231.1946028362810921       0.0043629223461881
    -424.2943860415116433   -1236.0883840411272558       0.0044738020540111
    -414.9319223218514594   -1240.9437892488638226       0.0045848154864510
    -405.5430612332969531   -1245.7607868557126949       0.0046959658927407
    -396.1278638878399079   -1250.5393455078897205       0.0048072565212216
    -386.6863915688942939   -1255.2794341018097839       0.0049186906193224
    -377.2187057308981935   -1259.9810217842903057       0.0050302714335381
    -367.7248679989129982   -1264.6440779527495124       0.0051420022094084
    -358.2049401682219241   -1269.2685722554056156       0.0052538861914971
    -348.6589842039288101   -1273.8544745914791747       0.0053659266233708
    -339.0870622405544736   -1278.4017551113811351       0.0054781267475779
    -329.4892365816314737   -1282.9103842169147356       0.0055904898056269
    -319.8655696993001243   -1287.3803325614619553       0.0057030190379663
    -310.2161242339004730   -1291.8115710501813282       0.0058157176839626
    -300.5409629935650173   -1296.2040708401896154       0.0059285889818799
    -290.8401489538098872   -1300.5578033407550720       0.0060416361688582
    -281.1137452571258564   -1304.8727402134813929       0.0061548624808928
    -271.3618152125646930   -1309.1488533724927947       0.0062682711528130
    -261.5844222953309668   -1313.3861149846168246       0.0063818654182613
    -251.7816301463649609   -1317.5844974695646670       0.0064956485096721
    -241.9535025719315513   -1321.7439735001109966       0.0066096236582505
    -232.1001035432037156   -1325.8645160022749678       0.0067237940939518
    -222.2214971958450178   -1329.9460981554907448       0.0068381630454600
    -212.3177478295937703   -1333.9886933927839436       0.0069527337401671
    -202.3889199078435013   -1337.9922754009494383       0.0070675094041519
    -192.4350780572244162   -1341.9568181207162070       0.0071824932621589
    -182.4562870671819326   -1345.8822957469185440       0.0072976885375778
    -172.4526118895542766   -1349.7686827286695461       0.0074130984524219
    -162.4241176381521257   -1353.6159537695164090       0.0075287262273075
    -152.3708695883325390   -1357.4240838276177783       0.0076445750814329
    -142.2929331765735412   -1361.1930481158960902       0.0077606482325573
    -132.1903740000516621   -1364.9228221022053731       0.0078769488969800
    -122.0632578162105659   -1368.6133815094883630       0.0079934802895196
    -111.9116505423369148   -1372.2647023159349828       0.0081102456234926
    -101.7356182551291823   -1375.8767607551399124       0.0082272481106929
     -91.5352271902667383   -1379.4495333162537918       0.0083444909613707
     -81.3105437419816326   -1382.9829967441410190       0.0084619773842120
     -71.0616344626239709   -1386.4771280395275426       0.0085797105863169
     -60.7885660622291937   -1389.9319044591509282       0.0086976937731795
     -50.4914054080853489   -1393.3473035159111078       0.0088159301486668
     -40.1702195242955966   -1396.7233029790140790       0.0089344229149977
     -29.8250755913431540   -1400.0598808741153789       0.0090531752727222
     -19.4560409456547916   -1403.3570154834690129       0.0091721904207007
      -9.0631830791604262   -1406.6146853460604689       0.0092914715560831
       1.3534303611440328   -1409.8328692577554193       0.0094110218742880
      11.7937315736380022   -1413.0115462714290970       0.0095308445689819
      22.2576526025184656   -1416.1506956971084037       0.0096509428320583
      32.7451253382393901   -1419.2502971021058329       0.0097713198536171
      43.2560815179590890   -1422.3103303111486184       0.0098919788219439
      53.7904527259806855   -1425.3307754065169775       0.0100129229234888
      64.3481703941995562   -1428.3116127281680292       0.0101341553428463
      74.9291658025502585   -1431.2528228738624421       0.0102556792627340
      85.5333700794518563   -1434.1543866992967651       0.0103774978639723
      96.1607142022568979   -1437.0162853182264371       0.0104996143254634
     106.8111289977014167   -1439.8385001025840211       0.0106220318241707
     117.4845451423549463   -1442.6210126826047144       0.0107447535350983
     128.1808931630711470   -1445.3638049469464022       0.0108677826312702
     138.9001034374398671   -1448.0668590428035714       0.0109911222837094
     149.6421061942424444   -1450.7301573760285009       0.0111147756614176
     160.4068315139011531   -1453.3536826112413110       0.0112387459313547
     171.1942093289415823   -1455.9374176719466050       0.0113630362584177
     182.0041694244405051   -1458.4813457406403359       0.0114876498054203
     192.8366414384897780   -1460.9854502589250842       0.0116125897330725
     203.6915548626491841   -1463.4497149276096479       0.0117378591999599
     214.5688390424089675   -1465.8741237068256851       0.0118634613625231
     225.4684231776484467   -1468.2586608161223012       0.0119893993750371
     236.3902363230960759   -1470.6033107345749613       0.0121156763895911
     247.3342073887920662   -1472.9080582008821239       0.0122422955560675
     258.3002651405514598   -1475.1728882134691503       0.0123692600221217
     269.2883382004270061   -1477.3977860305833474       0.0124965729331616
     280.2983550471736294   -1479.5827371703885547       0.0126242374323270
     291.3302440167161080   -1481.7277274110622329       0.0127522566604692
     302.3839333026105010   -1483.8327427908893696       0.0128806337561308
     313.4593509565185627   -1485.8977696083447881       0.0130093718555248
     324.5564248886698806   -1487.9227944221945563       0.0131384740925144
     335.6750828683347549   -1489.9078040515737484       0.0132679435985929
     346.8152525242920774   -1491.8527855760778493       0.0133977835028628
     357.9768613453027797   -1493.7577263358425625       0.0135279969320158
     369.1598366805799287   -1495.6226139316308945       0.0136585870103123
     380.3641057402617207   -1497.4474362249088699       0.0137895568595611
     391.5895955958865784   -1499.2321813379298874       0.0139209095990991
     402.8362331808659178   -1500.9768376538077064       0.0140526483457708
     414.1039452909623151   -1502.6813938165946638       0.0141847762139085
     425.3926585847629553   -1504.3458387313514777       0.0143172963153114
     436.7022995841601869   -1505.9701615642270554       0.0144502117592260
     448.0327946748263912   -1507.5543517425221580       0.0145835256523251
     459.3840701066961856   -1509.0983989547592046       0.0147172410986883
     470.7560519944444763   -1510.6022931507520752       0.0148513611997814
     482.1486663179676952   -1512.0660245416720500       0.0149858890544364
     493.5618389228683327   -1513.4895836001071530       0.0151208277588311
     504.9954955209327636   -1514.8729610601267268       0.0152561804064690
     516.4495616906174291   -1516.2161479173428233       0.0153919500881596
     527.9239628775345636   -1517.5191354289672745       0.0155281398919976
     539.4186243949346817   -1518.7819151138678535       0.0156647529033433
     550.9334714241947495   -1520.0044787526283017       0.0158017922048023
     562.4684290153041957   -1521.1868183875931209       0.0159392608762054
     574.0234220873530830   -1522.3289263229273729       0.0160771619945887
     585.5983754290209617   -1523.4307951246644279       0.0162154986341737
     597.1932136990656090   -1524.4924176207512119       0.0163542738663467
     608.8078614268143838   -1525.5137869010991380       0.0164934907596395
     620.4422430126556947   -1526.4948963176273082       0.0166331523797091
     632.0962827285295589   -1527.4357394843059410       0.0167732617893176
     643.7699047184212304   -1528.3363102771959348       0.0169138220483128
     655.4630329988568747   -1529.1966028344934330       0.0170548362136075
     667.1755914593949228   -1530.0166115565632481       0.0171963073391603
     678.9075038631224288   -1530.7963311059775151       0.0173382384759554
     690.6586938471543817   -1531.5357564075511618       0.0174806326719828
     702.4290849231254015   -1532.2348826483726043       0.0176234929722184
     714.2186004776914388   -1532.8937052778369434       0.0177668224186042
     726.0271637730294287   -1533.5122200076755234       0.0179106240500286
     737.8546979473309193   -1534.0904228119827621       0.0180549009023066
     749.7011260153087733   -1534.6283099272422987       0.0181996560081600
     761.5663708686959126   -1535.1258778523535966       0.0183448923971974
     773.4503552767457677   -1535.5831233486526344       0.0184906130958951
     785.3530018867369336   -1536.0000434399335063       0.0186368211275768
     797.2742332244748695   -1536.3766354124675217       0.0187835195123942
     809.2139716947998522   -1536.7128968150223045       0.0189307112673073
     821.1721395820860607   -1537.0088254588763448       0.0190783994060648
     833.1486590507533947   -1537.2644194178328689       0.0192265869391844
     845.1434521457706524   -1537.4796770282339367       0.0193752768739332
     857.1564407931631422   -1537.6545968889699907       0.0195244722143084
     869.1875468005222274   -1537.7891778614898612       0.0196741759610172
     881.2366918575143018   -1537.8834190698071325       0.0198243911114577
     893.3037975363878331   -1537.9373199005069637       0.0199751206596995
     905.3887852924875688   -1537.9508800027501820       0.0201263675964637
     917.4915764647636252   -1537.9240992882730552       0.0202781349091039
     929.6120922762823966   -1537.8569779313918389       0.0204304255815864
     941.7502538347436030   -1537.7495163689982292       0.0205832425944712
     953.9059821329885835   -1537.6017153005584532       0.0207365889248921
     966.0791980495175721   -1537.4135756881082671       0.0208904675465378
     978.2698223490041300   -1537.1850987562447699       0.0210448814296323
     990.4777756828126485   -1536.9162859921248128       0.0211998335409153
    1002.7029785895099394   -1536.6071391454452169       0.0213553268436236
    1014.9453514953867170   -1536.2576602284393630       0.0215113642974711
    1027.2048147149762372   -1535.8678515158633218       0.0216679488586299
    1039.4812884515688438   -1535.4377155449760721       0.0218250834797110
    1051.7746927977332234   -1534.9672551155285873       0.0219827711097451
    1064.0849477358394779   -1534.4564732897420072       0.0221410146941634
    1076.4119731385749219   -1533.9053733922899028       0.0222998171747782
    1088.7556887694695433   -1533.3139590102753118       0.0224591814897641
    1101.1160142834160069   -1532.6822339932077739       0.0226191105736388
    1113.4928692271939781   -1532.0102024529780920       0.0227796073572438
    1125.8861730399939916   -1531.2978687638328665       0.0229406747677254
    1138.2958450539385922   -1530.5452375623435728       0.0231023157285160
    1150.7218044946123428   -1529.7523137473776842       0.0232645331593143
    1163.1639704815836467   -1528.9191024800686591       0.0234273299760671
    1175.6222620289340739   -1528.0456091837784243       0.0235907090909500
    1188.0965980457822297   -1527.1318395440657696       0.0237546734123482
    1200.5868973368160368   -1526.1777995086465580       0.0239192258448380
    1213.0930786028159218   -1525.1834952873568909       0.0240843692891675
    1225.6150604411877794   -1524.1489333521114986       0.0242501066422382
    1238.1527613464922979   -1523.0741204368621311       0.0244164407970855
    1250.7060997109745131   -1521.9590635375550391       0.0245833746428605
    1263.2749938250954074   -1520.8037699120827710       0.0247509110648108
    1275.8593618780637371   -1519.6082470802384705       0.0249190529442619
    1288.4591219583683142   -1518.3725028236667640       0.0250878031585983
    1301.0741920543125616   -1517.0965451858135111       0.0252571645812449
    1313.7044900545447490   -1515.7803824718721444       0.0254271400816482
    1326.3499337485984597   -1514.4240232487322828       0.0255977325252578
    1339.0104408274207799   -1513.0274763449187958       0.0257689447735075
    1351.6859288839136752   -1511.5907508505426904       0.0259407796837969
    1364.3763154134655906   -1510.1138561172317623       0.0261132401094727
    1377.0815178144939637   -1508.5968017580778451       0.0262863288998099
    1389.8014533889784161   -1507.0395976475722364       0.0264600488999938
    1402.5360393429996293   -1505.4422539215368033       0.0266344029511009
    1415.2851927872798115   -1503.8047809770648655       0.0268093938900809
    1428.0488307377238471   -1502.1271894724504818       0.0269850245497378
    1440.8268701159538523   -1500.4094903271179646       0.0271612977587118
    1453.6192277498528256   -1498.6516947215498021       0.0273382163414608
    1466.4258203741119360   -1496.8538140972202655       0.0275157831182417
    1479.2465646307598490   -1495.0158601565133267       0.0276940009050926
    1492.0813770697156997   -1493.1378448626498994       0.0278728725138141
    1504.9301741493293321   -1491.2197804396105312       0.0280524007519510
    1517.7928722369254046   -1489.2616793720569603       0.0282325884227741
    1530.6693876093445397   -1487.2635544052457135       0.0284134383252621
    1543.5596364534937948   -1485.2254185449496617       0.0285949532540832
    1556.4635348668853112   -1483.1472850573729829       0.0287771359995769
    1569.3809988581899688   -1481.0291674690631680       0.0289599893477359
    1582.3119443477796722   -1478.8710795668237097       0.0291435160801878
    1595.2562871682735022   -1476.6730353976242895       0.0293277189741776
    1608.2139430650895520   -1474.4350492685107383       0.0295126008025486
    1621.1848276969910785   -1472.1571357465090841       0.0296981643337253
    1634.1688566366342457   -1469.8393096585330113       0.0298844123316950
    1647.1659453711199603   -1467.4815860912860899       0.0300713475559896
    1660.1760093025427523   -1465.0839803911660510       0.0302589727616681
    1673.1989637485430649   -1462.6465081641606503       0.0304472906992981
    1686.2347239428556804   -1460.1691852757496690       0.0306363041149386
    1699.2832050358626930   -1457.6520278507996409       0.0308260157501214
    1712.3443220951473904   -1455.0950522734608512       0.0310164283418339
    1725.4179901060447264   -1452.4982751870575157       0.0312075446225007
    1738.5041239721949751   -1449.8617134939829612       0.0313993673199662
    1751.6026385161001144   -1447.1853843555895764       0.0315918991574768
    1764.7134484796752076   -1444.4693051920717153       0.0317851428536632
    1777.8364685248045589   -1441.7134936823586031       0.0319791011225223
    1790.9716132338987791   -1438.9179677639972397       0.0321737766734002
    1804.1187971104459393   -1436.0827456330332552       0.0323691722109740
    1817.2779345795745485   -1433.2078457438979058       0.0325652904352346
    1830.4489399886051615   -1430.2932868092811987       0.0327621340414686
    1843.6317276076115377   -1427.3390878000138855       0.0329597057202415
    1856.8262116299765694   -1424.3452679449455900       0.0331580081573796
    1870.0323061729507117   -1421.3118467308152049       0.0333570440339527
    1883.2499252782129133   -1418.2388439021285649       0.0335568160262566
    1896.4789829124274547   -1415.1262794610263427       0.0337573268057958
    1909.7193929678073800   -1411.9741736671555827       0.0339585790392661
    1922.9710692626699711   -1408.7825470375362329       0.0341605753885371
    1936.2339255420044992   -1405.5514203464329057       0.0343633185106350
    1949.5078754780267900   -1402.2808146252111783       0.0345668110577251
    1962.7928326707451561   -1398.9707511622082166       0.0347710556770950
    1976.0887106485220102   -1395.6212515025888479       0.0349760550111369
    1989.3954228686359329   -1392.2323374482109557       0.0351818116973305
    2002.7128827178448773   -1388.8040310574751857       0.0353883283682261
    2016.0410035129543758   -1385.3363546451926140       0.0355956076514270
    2029.3796985013734684   -1381.8293307824287695       0.0358036521695729
    2042.7288808616858660   -1378.2829822963624338       0.0360124645403226
    2056.0884637042122449   -1374.6973322701362576       0.0362220473763367
    2069.4583600715786815   -1371.0724040427071486       0.0364324032852612
    2082.8384829392780375   -1367.4082212086912023       0.0366435348697098
    2096.2287452162418049   -1363.7048076182147724       0.0368554447272477
