                   X [km]                   Y [km]                 T [dias]
    -318.5623783414623063   -1206.5732508869114099       0.0000000000000000
    -308.0632871146318053   -1209.3194699219468475       0.0001093494542839
    -297.5515165059110245   -1212.0174840268257412       0.0002187028105203
    -287.0271112814670005   -1214.6672817115957059       0.0003280639706453
    -276.4901162612727035   -1217.2688516916418848       0.0004374368365615
    -265.9405763189179766   -1219.8221828877367443       0.0005468253101219
    -255.3785363814160974   -1222.3272644260807738       0.0006562332931127
    -244.8040414290146884   -1224.7840856383591017       0.0007656646872374
    -234.2171364950026486   -1227.1926360617792398       0.0008751233940995
    -223.6178666655195002   -1229.5529054391197405       0.0009846133151863
    -213.0062770793618085   -1231.8648837187706704       0.0010941383518523
    -202.3824129277929842   -1234.1285610547795386       0.0012037024053021
    -191.7463194543487930   -1236.3439278068876774       0.0013133093765746
    -181.0980419546465043   -1238.5109745405811736       0.0014229631665256
    -170.4376257761900888   -1240.6296920271190629       0.0015326676758115
    -159.7651163181796221   -1242.7000712435851710       0.0016424268048729
    -149.0805590313155164   -1244.7221033729158535       0.0017522444539178
    -138.3839994176060202   -1246.6957798039420595       0.0018621245229047
    -127.6754830301729555   -1248.6210921314257121       0.0019720709115265
    -116.9550554730585361   -1250.4980321560956327       0.0020820875191937
    -106.2227624010316873   -1252.3265918846864224       0.0021921782450177
     -95.4786495193903733   -1254.1067635299598351       0.0023023469877941
     -84.7227625837714697   -1255.8385395107554814       0.0024125976459865
     -73.9551473999521960   -1257.5219124520072000       0.0025229341177095
     -63.1758498236576500   -1259.1568751847876229       0.0026333603007123
     -52.3849157603630431   -1260.7434207463270468       0.0027438800923620
     -41.5823911651008657   -1262.2815423800514054       0.0028544973896272
     -30.7683220422628843   -1263.7712335356068252       0.0029652160890611
     -19.9427544454060097   -1265.2124878688903209       0.0030760400867850
      -9.1057344770547530   -1266.6052992420741248       0.0031869732784719
       1.7426917114942508   -1267.9496617236345628       0.0032980195593299
      12.6024779203688055   -1269.2455695883752469       0.0034091828240852
      23.4735779013188264   -1270.4930173174491301       0.0035204669669660
      34.3559453579119776   -1271.6919995983901117       0.0036318758816857
      45.2495339457317058   -1272.8425113251266794       0.0037434134614263
      56.1542972725740626   -1273.9445475980087394       0.0038550835988218
      67.0701888986459380   -1274.9981037238258068       0.0039668901859417
      77.9971623367625142   -1276.0031752158322433       0.0040788371142747
      88.9351710525447601   -1276.9597577937583992       0.0041909282747113
      99.8841684646182983   -1277.8678473838328955       0.0043031675575282
     110.8441079448116540   -1278.7274401188021784       0.0044155588523711
     121.8149428183543819   -1279.5385323379450710       0.0045281060482384
     132.7966263640763600   -1280.3011205870866434       0.0046408130334645
     143.7891118146064855   -1281.0152016186154924       0.0047536836957034
     154.7923523565719108   -1281.6807723914946564       0.0048667219219120
     165.8063011307973227   -1282.2978300712775308       0.0049799315983336
     176.8309112325045760   -1282.8663720301194644       0.0050933166104813
     187.8661357115125838   -1283.3863958467889006       0.0052068808431216
     198.9119275724370652   -1283.8578993066737439       0.0053206281802578
     209.9682397748909750   -1284.2808804017968214       0.0054345625051132
     221.0350252336837400   -1284.6553373308199753       0.0055486877001150
     232.1122368190241048   -1284.9812684990570233       0.0056630076468774
     243.1998273567174635   -1285.2586725184723946       0.0057775262261853
     254.2977496283705250   -1285.4875482076945445       0.0058922473179778
     265.4059563715895251   -1285.6678945920170918       0.0060071748013312
     276.5244002801829311   -1285.7997109034049572       0.0061223125544433
     287.6530340043620981   -1285.8829965804941367       0.0062376644546161
     298.7918101509436610   -1285.9177512686014779       0.0063532343782398
     309.9406812835505320   -1285.9039748197153585       0.0064690262007759
     321.0995999228151732   -1285.8416672925056901       0.0065850437967412
     332.2685185465804807   -1285.7308289523202802       0.0067012910396908
     343.4473895901029437   -1285.5714602711834686       0.0068177718022018
     354.6361654462547790   -1285.3635619277933984       0.0069344899558570
     365.8347984657273173   -1285.1071348075206515       0.0070514493712280
     377.0432409572323422   -1284.8021800024025652       0.0071686539178591
     388.2614451877077499   -1284.4486988111439132       0.0072861074642506
     399.4893633825192296   -1284.0466927391030367       0.0074038138778424
     410.7269477256622849   -1283.5961634982902524       0.0075217770249977
     421.9741503599696557   -1283.0971130073633049       0.0076400007709859
     433.2309233873114067   -1282.5495433916123602       0.0077584889799671
     444.4972188688009282   -1281.9534569829556858       0.0078772455149749
     455.7729888249992882   -1281.3088563199310101       0.0079962742379001
     467.0581852361174242   -1280.6157441476771055       0.0081155790094746
     478.3527600422237356   -1279.8741234179326511       0.0082351636892545
     489.6566651434459914   -1279.0839972890146328       0.0083550321356038
     500.9698524001775013   -1278.2453691258101571       0.0084751882056784
     512.2922736332823206   -1277.3582424997600810       0.0085956357554088
     523.6238806242996588   -1276.4226211888446869       0.0087163786394846
     534.9646251156505059   -1275.4385091775677665       0.0088374207113374
     546.3144588108399375   -1274.4059106569343385       0.0089587658231249
     557.6733333746684593   -1273.3248300244461007       0.0090804178257140
     569.0412004334318681   -1272.1952718840655052       0.0092023805686648
     580.4180115751306630   -1271.0172410462100743       0.0093246579002141
     591.8037183496752505   -1269.7907425277248876       0.0094472536672588
     603.1982722690938772   -1268.5157815518630287       0.0095701717153398
     614.6016248077360160   -1267.1923635482623922       0.0096934158886255
     626.0137274024804128   -1265.8204941529245389       0.0098169900298956
     637.4345314529443840   -1264.4001792081894564       0.0099408979805242
     648.8639883216862927   -1262.9314247627085024       0.0100651435804641
     660.3020493344167789   -1261.4142370714257595       0.0101897306682302
     671.7486657802028276   -1259.8486225955416558       0.0103146630808829
     683.2037889116783163   -1258.2345880024934104       0.0104399446540120
     694.6673699452483106   -1256.5721401659213825       0.0105655792217207
     706.1393600612984756   -1254.8612861656426958       0.0106915706166084
     717.6197104044042590   -1253.1020332876223620       0.0108179226697552
     729.1083720835374606   -1251.2943890239378106       0.0109446392107052
     740.6052961722733698   -1249.4383610727495579       0.0110717240674503
     752.1104337090019953   -1247.5339573382702838       0.0111991810664139
     763.6237356971336112   -1245.5811859307264058       0.0113270140324343
     775.1451531053093049   -1243.5800551663289752       0.0114552267887491
     786.6746368676103884   -1241.5305735672343417       0.0115838231569781
     798.2121378837634893   -1239.4327498615084551       0.0117128069571078
     809.7576070193553051   -1237.2865929830916230       0.0118421820074744
     821.3109951060371259   -1235.0921120717584927       0.0119719521247481
     832.8722529417367468   -1232.8493164730803073       0.0121021211239167
     844.4413312908676517   -1230.5582157383848880       0.0122326928182690
     856.0181808845370597   -1228.2188196247138876       0.0123636710193792
     867.6027524207578381   -1225.8311380947850466       0.0124950595370901
     879.1949965646579130   -1223.3951813169467187       0.0126268621794972
     890.7948639486908178   -1220.9109596651378524       0.0127590827529322
     902.4023051728416931   -1218.3784837188368328       0.0128917250619474
     914.0172708048468166   -1215.7977642630271475       0.0130247929092985
     925.6397113803924412   -1213.1688122881400886       0.0131582900959293
     937.2695774033367115   -1210.4916389900165541       0.0132922204209553
     948.9068193459119129   -1207.7662557698561159       0.0134265876816471
     960.5513876489391123   -1204.9926742341663157       0.0135613956734147
     972.2032327220408661   -1202.1709061947174177       0.0136966481897911
     983.8623049438489261   -1199.3009636684910220       0.0138323490224164
     995.5285546622152424   -1196.3828588776234483       0.0139685019610212
    1007.2019321944288777   -1193.4166042493632176       0.0141051107934110
    1018.8823878274215531   -1190.4022124160121621       0.0142421793054495
    1030.5698718179817206   -1187.3396962148701732       0.0143797112810431
    1042.2643343929673847   -1184.2290686881858619       0.0145177105021242
    1053.9657257495155136   -1181.0703430830942580       0.0146561807486354
    1065.6739960552579305   -1177.8635328515695164       0.0147951257985136
    1077.3890954485286784   -1174.6086516503571602       0.0149345494276733
    1089.1109740385797977   -1171.3057133409247399       0.0150744554099912
    1100.8395819057955123   -1167.9547319893983968       0.0152148475172895
    1112.5748691018991394   -1164.5557218665026085       0.0153557295193206
    1124.3167856501697770   -1161.1086974475024363       0.0154971051837502
    1136.0652815456551252   -1157.6136734121373593       0.0156389782761417
    1147.8203067553818073   -1154.0706646445642036       0.0157813525599404
    1159.5818112185718292   -1150.4796862332877936       0.0159242317964569
    1171.3497448468547191   -1146.8407534711038807       0.0160676197448516
    1183.1240575244787578   -1143.1538818550272936       0.0162115201621181
    1194.9046991085269838   -1139.4190870862294105       0.0163559368030680
    1206.6916194291275133   -1135.6363850699681279       0.0165008734203143
    1218.4847682896734113   -1131.8057919155276068       0.0166463337642554
    1230.2840954670298288   -1127.9273239361402830       0.0167923215830596
    1242.0895507117504621   -1124.0009976489238852       0.0169388406226488
    1253.9010837482921943   -1120.0268297748070836       0.0170858946266825
    1265.7186442752274615   -1116.0048372384619597       0.0172334873365420
    1277.5421819654611681   -1111.9350371682278364       0.0173816224913144
    1289.3716464664435080   -1107.8174468960435206       0.0175303038277768
    1301.2069874003830137   -1103.6520839573684043       0.0176795350803804
    1313.0481543644639260   -1099.4389660911112969       0.0178293199812341
    1324.8950969310574237   -1095.1781112395515265       0.0179796622600893
    1336.7477646479394480   -1090.8695375482657255       0.0181305656443237
    1348.6061070385055700   -1086.5132633660500687       0.0182820338589254
    1360.4700736019824490   -1082.1093072448411476       0.0184340706264769
    1372.3396138136463378   -1077.6576879396352524       0.0185866796671397
    1384.2146771250379516   -1073.1584244084131115       0.0187398646986380
    1396.0952129641757438   -1068.6115358120543988       0.0188936294362431
    1407.9811707357732757   -1064.0170415142597449       0.0190479775927576
    1419.8724998214515836   -1059.3749610814652442       0.0192029128784993
    1431.7691495799626864   -1054.6853142827646934       0.0193584390012857
    1443.6710693473921765   -1049.9481210898136396       0.0195145596664183
    1455.5782084373879570   -1045.1634016767602589       0.0196712785766665
    1467.4905161413691985   -1040.3311764201464484       0.0198285994322518
    1479.4079417287423439   -1035.4514658988271094       0.0199865259308326
    1491.3304344471182503   -1030.5242908938807886       0.0201450617674877
    1503.2579435225331963   -1025.5496723885235042       0.0203042106347010
    1515.1904181596535182   -1020.5276315680141579       0.0204639762223460
    1527.1278075420023015   -1015.4581898195705207       0.0206243622176695
    1539.0700608321747040   -1010.3413687322745318       0.0207853723052762
    1551.0171271720466848   -1005.1771900969804392       0.0209470101671130
    1562.9689556830012407    -999.9656759062230549       0.0211092794824535
    1574.9254954661403190    -994.7068483541244177       0.0212721839278820
    1586.8866956025015043    -989.4007298362980691       0.0214357271772781
    1598.8525051532733414    -984.0473429497529878       0.0215999129018006
    1610.8228731600177071    -978.6467104927995706       0.0217647447698727
    1622.7977486448826312    -973.1988554649536809       0.0219302264471655
    1634.7770806108203487    -967.7038010668328525       0.0220963615965831
    1646.7608180418010306    -962.1615707000628390       0.0222631538782463
    1658.7489099030392481    -956.5721879671768875       0.0224306069494778
    1670.7413051412011100    -950.9356766715138747       0.0225987244647859
    1682.7379526846282261    -945.2520608171172398       0.0227675100758494
    1694.7388014435514378    -939.5213646086348263       0.0229369674315019
    1706.7438003103120536    -933.7436124512124707       0.0231071001777161
    1718.7528981595753521    -927.9188289503923670       0.0232779119575887
    1730.7660438485513623    -922.0470389120089294       0.0234494064113244
    1742.7831862172124602    -916.1282673420793117       0.0236215871762207
    1754.8042740885082367    -910.1625394467018850       0.0237944578866524
    1766.8292562685883240    -904.1498806319457344       0.0239680221740559
    1778.8580815470165817    -898.0903165037432245       0.0241422836669140
    1790.8906986969893751    -891.9838728677807467       0.0243172459907403
    1802.9270564755572650    -885.8305757293894658       0.0244929127680637
    1814.9671036238360102    -879.6304512934337936       0.0246692876184132
    1827.0107888672355330    -873.3835259642002029       0.0248463741583023
    1839.0580609156704668    -867.0898263452860419       0.0250241760012136
    1851.1088684637768438    -860.7493792394835737       0.0252026967575836
    1863.1631601911362850    -854.3622116486650384       0.0253819400347871
    1875.2208847624963255    -847.9283507736757883       0.0255619094371218
    1887.2819908279782339    -841.4478240142067307       0.0257426085657932
    1899.3464270233091611    -834.9206589686867801       0.0259240410188992
    1911.4141419700295046    -828.3468834341600768       0.0261062103914146
    1923.4850842757186911    -821.7265254061704809       0.0262891202751759
    1935.5592025342114084    -815.0596130786404956       0.0264727742588661
    1947.6364453258158846    -808.3461748437532606       0.0266571759279992
    1959.7167612175373961    -801.5862392918292016       0.0268423288649052
    1971.8000987632901797    -794.7798352112060911       0.0270282366487145
    1983.8864065041236699    -787.9269915881169482       0.0272149028553431
    1995.9756329684362299    -781.0277376065633916       0.0274023310574770
    2008.0677266721936576    -774.0821026481941090       0.0275905248245570
    2020.1626361191561045    -767.0901162921794594       0.0277794877227639
    2032.2603098010906706    -760.0518083150858502       0.0279692233150027
    2044.3606961979894550    -752.9672086907463608       0.0281597351608879
    2056.4637437782980669    -745.8363475901369384       0.0283510268167282
    2068.5694009991225357    -738.6592553812445203       0.0285431018355115
    2080.6776163064605498    -731.4359626289395919       0.0287359637668892
    2092.7883381354122321    -724.1665000948455599       0.0289296161571620
    2104.9015149104047850    -716.8508987372072170       0.0291240625492639
    2117.0170950454084959    -709.4891897107603427       0.0293193064827477
    2129.1350269441645651    -702.0814043665975532       0.0295153514937696
    2141.2552590003906516    -694.6275742520348331       0.0297122011150745
    2153.3777395980150686    -687.1277311104788623       0.0299098588759805
    2165.5024171113882403    -679.5819068812891146       0.0301083283023643
    2177.6292399055023452    -671.9901336996451846       0.0303076129166457
    2189.7581563362168708    -664.3524438964060437       0.0305077162377733
    2201.8891147504737091    -656.6688699979767989       0.0307086417812087
    2214.0220634865181637    -648.9394447261648793       0.0309103930589120
    2226.1569508741222307    -641.1642009980465673       0.0311129735793271
    2238.2937252347983303    -633.3431719258218209       0.0313163868473661
    2250.4323348820253159    -625.4763908166760302       0.0315206363643947
    2262.5727281214612958    -617.5638911726375682       0.0317257256282174
    2274.7148532511764643    -609.6057066904348858       0.0319316581330625
    2286.8586585618604659    -601.6018712613522439       0.0321384373695672
    2299.0040923370474957    -593.5524189710879455       0.0323460668247627
    2311.1511028533395802    -585.4573840996063154       0.0325545499820595
    2323.2996383806193990    -577.3168011209919541       0.0327638903212323
    2335.4496471822808417    -569.1307047033067192       0.0329740913184056
    2347.6010775154395560    -560.8991297084371581       0.0331851564460383
    2359.7538776311566835    -552.6221111919471696       0.0333970891729095
    2371.9079957746625951    -544.2996844029314616       0.0336098929641035
    2384.0633801855751699    -535.9318847838635520       0.0338235712809949
    2396.2199790981158003    -527.5187479704426323       0.0340381275812340
    2408.3777407413372202    -519.0603097914482760       0.0342535653187321
    2420.5366133393404198    -510.5566062685791167       0.0344698879436468
    2432.6965451114929238    -502.0076736163074429       0.0346870989023670
    2444.8574842726497991    -493.4135482417187859       0.0349052016374988
    2457.0193790333851211    -484.7742667443615119       0.0351241995878505
    2469.1821776001920625    -476.0898659160882858       0.0353440961884176
    2481.3458281757220902    -467.3603827408998086       0.0355648948703691
    2493.5102789589941494    -458.5858543947881572       0.0357865990610318
    2505.6754781456243109    -449.7663182455790434       0.0360092121838766
    2517.8413739280349546    -440.9018118527686170       0.0362327376585033
    2530.0079144956885102    -431.9923729673699313       0.0364571789006266
    2542.1750480352966406    -423.0380395317445732       0.0366825393220610
    2554.3427227310476155    -414.0388496794504931       0.0369088223307065
    2566.5108867648245905    -404.9948417350689169       0.0371360313305344
    2578.6794883164293424    -395.9060542140518919       0.0373641697215721
    2590.8484755637937269    -386.7725258225472658       0.0375932408998894
    2603.0177966832134189    -377.5942954572447547       0.0378232482575834
    2615.1873998495634623    -368.3714022052013775       0.0380541951827645
    2627.3572332365106377    -359.1038853436808722       0.0382860850595417
    2639.5272450167458373    -349.7917843399822573       0.0385189212680082
    2651.6973833622018901    -340.4351388512762924       0.0387527071842273
    2663.8675964442668374    -331.0339887244315378       0.0389874461802176
