                   X [km]                   Y [km]                 T [dias]
    -753.3119906484581634    -994.8980065291309529       0.0000000000000000
    -745.1021474359398553   -1001.0852527174370152       0.0001053988630261
    -736.8644022215477207   -1007.2355405713567507       0.0002108009675412
    -728.5988073451385389   -1013.3488310140334079       0.0003162095550134
    -720.3054153235189005   -1019.4250852036786910       0.0004216278668700
    -711.9842788501081259   -1025.4642645338192324       0.0005270591444762
    -703.6354507946043668   -1031.4663306335437483       0.0006325066291149
    -695.2589842026499127   -1037.4312453677475787       0.0007379735619663
    -686.8549322954909258   -1043.3589708373692702       0.0008434631840866
    -678.4233484696434289   -1049.2494693796395495       0.0009489787363881
    -669.9642862965507675   -1055.1027035683141548       0.0010545234596184
    -661.4777995222436857   -1060.9186362139139419       0.0011601005943395
    -652.9639420670027903   -1066.6972303639631718       0.0012657133809077
    -644.4227680250096455   -1072.4384493032205228       0.0013713650594526
    -635.8543316640060539   -1078.1422565539135121       0.0014770588698570
    -627.2586874249524271   -1083.8086158759729187       0.0015827980517356
    -618.6358899216758118   -1089.4374912672606115       0.0016885858444151
    -609.9859939405283740   -1095.0288469637982871       0.0017944254869133
    -601.3090544400347426   -1100.5826474399943891       0.0019003202179186
    -592.6051265505457195   -1106.0988574088717087       0.0020062732757691
    -583.8742655738876692   -1111.5774418222890745       0.0021122878984327
    -575.1165269830109992   -1117.0183658711691805       0.0022183673234860
    -566.3319664216356841   -1122.4215949857102714       0.0023245147880937
    -557.5206397039020203   -1127.7870948356166991       0.0024307335289884
    -548.6826028140118297   -1133.1148313303081068       0.0025370267824498
    -539.8179119058740980   -1138.4047706191427096       0.0026433977842842
    -530.9266233027493627   -1143.6568790916271610       0.0027498497698037
    -522.0087934968896661   -1148.8711233776325571       0.0028563859738061
    -513.0644791491833985   -1154.0474703476093055       0.0029630096305540
    -504.0937370887897941   -1159.1858871127888051       0.0030697239737543
    -495.0966243127834900   -1164.2863410254051360       0.0031765322365380
    -486.0731979857883971   -1169.3487996788910550       0.0032834376514389
    -477.0235154396154371   -1174.3732309080880896       0.0033904434503740
    -467.9476341728996545   -1179.3596027894536746       0.0034975528646220
    -458.8456118507339170   -1184.3078836412610144       0.0036047691248038
    -449.7175063043017076   -1189.2180420237987164       0.0037120954608610
    -440.5633755305117347   -1194.0900467395754276       0.0038195351020361
    -431.3832776916274838   -1198.9238668335144666       0.0039270912768515
    -422.1772711148982467   -1203.7194715931500468       0.0040347672130892
    -412.9454142921887296   -1208.4768305488248643       0.0041425661377705
    -403.6877658796082073   -1213.1959134738829107       0.0042504912771351
    -394.4043846971363223   -1217.8766903848611491       0.0043585458566206
    -385.0953297282501353   -1222.5191315416793714       0.0044667331008426
    -375.7606601195495841   -1227.1232074478305094       0.0045750562335735
    -366.4004351803811801   -1231.6888888505668547       0.0046835184777223
    -357.0147143824611931   -1236.2161467410860496       0.0047921230553142
    -347.6035573594984385   -1240.7049523547161698       0.0049008731874702
    -338.1670239068143928   -1245.1552771710992147       0.0050097720943862
    -328.7051739809646165   -1249.5670929143700505       0.0051188229953131
    -319.2180676993561974   -1253.9403715533369450       0.0052280291085360
    -309.7057653398672983   -1258.2750853016611927       0.0053373936513537
    -300.1683273404627244   -1262.5712066180319653       0.0054469198400587
    -290.6058142988113104   -1266.8287082063388880       0.0055566108899161
    -281.0182869719002383   -1271.0475630158546210       0.0056664700151437
    -271.4058062756483309   -1275.2277442413944755       0.0057765004288914
    -261.7684332845203130   -1279.3692253234951295       0.0058867053432208
    -252.1062292311382578   -1283.4719799485808380       0.0059970879690848
    -242.4192555058921528   -1287.5359820491314622       0.0061076515163072
    -232.7075736565504371   -1291.5612058038452687       0.0062183991935621
    -222.9712453878679526   -1295.5476256378074140       0.0063293342083539
    -213.2103325611955995   -1299.4952162226477412       0.0064404597669966
    -203.4248971940854176   -1303.4039524767065359       0.0065517790745937
    -193.6150014598978544   -1307.2738095651893673       0.0066632953350176
    -183.7807076874063625   -1311.1047629003289785       0.0067750117508892
    -173.9220783604005192   -1314.8967881415364900       0.0068869315235578
    -164.0391761172913334   -1318.6498611955623801       0.0069990578530808
    -154.1320637507100741   -1322.3639582166429136       0.0071113939382028
    -144.2008042071121849   -1326.0390556066583940       0.0072239429763362
    -134.2454605863754864   -1329.6751300152764088       0.0073367081635399
    -124.2660961414002543   -1333.2721583401064436       0.0074496926944997
    -114.2627742777068391   -1336.8301177268408537       0.0075628997625077
    -104.2355585530329591   -1340.3489855694042490       0.0076763325594422
     -94.1845126769301118   -1343.8287395100953745       0.0077899942757470
     -84.1097005103581097   -1347.2693574397305838       0.0079038881004118
     -74.0111860652799436   -1350.6708174977823091       0.0080180172209513
     -63.8890335042551598   -1354.0330980725188965       0.0081323848233853
     -53.7433071400316891   -1357.3561778011414845       0.0082469940922183
     -43.5740714351375047   -1360.6400355699211104       0.0083618482104194
     -33.3813910014705826   -1363.8846505143314971       0.0084769503594020
     -23.1653305998900656   -1367.0900020191832027       0.0085923037190036
     -12.9259551398023156   -1370.2560697187516325       0.0087079114674656
      -2.6633296787498004   -1373.3828334969080061       0.0088237767814130
       7.6224805780016220   -1376.4702734872500969       0.0089399028358345
      17.9314102778779905   -1379.5183700732236503       0.0090562928040620
      28.2633939214123551   -1382.5271038882497123       0.0091729498577505
      38.6183658626609443   -1385.4964558158453656       0.0092898771668584
      48.9962603096203608   -1388.4264069897515128       0.0094070778996265
      59.3970113246431808   -1391.3169387940431534       0.0095245552225586
      69.8205528248628013   -1394.1680328632555756       0.0096423123004014
      80.2668185826058789   -1396.9796710824971342       0.0097603522961235
      90.7357422258190098   -1399.7518355875658926       0.0098786783708966
     101.2272572384871978   -1402.4845087650621736       0.0099972936840743
     111.7412969610581825   -1405.1776732525011084       0.0101162013931726
     122.2777945908647439   -1407.8313119384226866       0.0102354046538498
     132.8366831825503596   -1410.4454079624997576       0.0103549066198864
     143.4178956484929301   -1413.0199447156485348       0.0104747104431647
     154.0213647592323980   -1415.5549058401277307       0.0105948192736495
     164.6470231438979681   -1418.0502752296486051       0.0107152362593676
     175.2948032906350591   -1420.5060370294750101       0.0108359645463876
     185.9646375470350677   -1422.9221756365241163       0.0109570072788005
     196.6564581205654179   -1425.2986756994641837       0.0110783675986993
     207.3701970789984159   -1427.6355221188141513       0.0112000486461592
     218.1057863508463583   -1429.9327000470395888       0.0113220535592175
     228.8631577257907281   -1432.1901948886459195       0.0114443854738540
     239.6422428551170469   -1434.4079923002705073       0.0115670475239707
     250.4429732521488745   -1436.5860781907756518       0.0116900428413718
     261.2652802926835989   -1438.7244387213374921       0.0118133745557445
     272.1090952154271463   -1440.8230603055337724       0.0119370457946382
     282.9743491224329546   -1442.8819296094300171       0.0120610596834455
     293.8609729795363137   -1444.9010335516632040       0.0121854193453814
     304.7688976167965507   -1446.8803593035272570       0.0123101279014646
     315.6980537289342124   -1448.8198942890528542       0.0124351884704965
     326.6483718757732504   -1450.7196261850890551       0.0125606041690421
     337.6197824826800229   -1452.5795429213785610       0.0126863781114103
     348.6122158410066163   -1454.3996326806363868       0.0128125134096334
     359.6256021085349630   -1456.1798838986262581       0.0129390131734480
     370.6598713099180600   -1457.9202852642315520       0.0130658805102751
     381.7149533371256211   -1459.6208257195264650       0.0131931185252000
     392.7907779498900709   -1461.2814944598524107       0.0133207303209531
     403.8872747761528785   -1462.9022809338769093       0.0134487189978898
     415.0043733125104950   -1464.4831748436704402       0.0135770876539708
     426.1420029246630179   -1466.0241661447651040       0.0137058393847429
     437.3000928478640503   -1467.5252450462207889       0.0138349772833185
     448.4785721873678881   -1468.9864020106888347       0.0139645044403568
     459.6773699188825049   -1470.4076277544693312       0.0140944239440436
     470.8964148890191268   -1471.7889132475713723       0.0142247388800719
     482.1356358157448767   -1473.1302497137742193       0.0143554523316223
     493.3949612888346223   -1474.4316286306764141       0.0144865673793433
     504.6743197703279407   -1475.6930417297555778       0.0146180871013318
     515.9736395949805683   -1476.9144809964175238       0.0147500145731137
     527.2928489707186372   -1478.0959386700487812       0.0148823528676239
     538.6318759790995045   -1479.2374072440643431       0.0150151050551872
     549.9906485757647943   -1480.3388794659574614       0.0151482742034989
     561.3690945908990670   -1481.4003483373453491       0.0152818633776046
     572.7671417296887739   -1482.4218071140126085       0.0154158756398816
     584.1847175727816648   -1483.4032493059530680       0.0155503140500189
     595.6217495767471064   -1484.3446686774145746       0.0156851816649979
     607.0781650745350362   -1485.2460592469342373       0.0158204815390730
     618.5538912759410550   -1486.1074152873823095       0.0159562167237520
     630.0488552680654948   -1486.9287313259901566       0.0160923902677771
     641.5629840157799890   -1487.7100021443945934       0.0162290052171054
     653.0962043621875637   -1488.4512227786615313       0.0163660646148890
     664.6484430290913679   -1489.1523885193269052       0.0165035715014567
     676.2196266174573793   -1489.8134949114178198       0.0166415289142937
     687.8096816078838174   -1490.4345377544887015       0.0167799398880229
     699.4185343610640757   -1491.0155131026415347       0.0169188074543853
     711.0461111182584091   -1491.5564172645551935       0.0170581346422209
     722.6923380017602767   -1492.0572468035065867       0.0171979244774496
     734.3571410153668921   -1492.5179985373922591       0.0173381799830515
     746.0404460448486361   -1492.9386695387531745       0.0174789041790482
     757.7421788584211981   -1493.3192571347863122       0.0176201000824833
     769.4622651072153303   -1493.6597589073660401       0.0177617707074035
     781.2006303257505806   -1493.9601726930593486       0.0179039190648389
     792.9571999324090257   -1494.2204965831385834       0.0180465481627846
     804.7318992299054798   -1494.4407289235916778       0.0181896610061812
     816.5246534057680492   -1494.6208683151380683       0.0183332605968956
     828.3353875328087952   -1494.7609136132327876       0.0184773499337022
     840.1640265695998551   -1494.8608639280739681       0.0186219320122635
     852.0104953609546783   -1494.9207186246123911       0.0187670098251116
     863.8747186383995995   -1494.9404773225501231       0.0189125863616287
     875.7566210206570076   -1494.9201398963482461       0.0190586646080283
     887.6561270141204432   -1494.8597064752236747       0.0192052475473361
     899.5731610133378808   -1494.7591774431489284       0.0193523381593713
     911.5076473014875091   -1494.6185534388525866       0.0194999394207275
     923.4595100508656742   -1494.4378353558129220       0.0196480543047538
     935.4286733233598170   -1494.2170243422508520       0.0197966857815358
     947.4150610709393732   -1493.9561218011237997       0.0199458368178770
     959.4185971361339398   -1493.6551293901216013       0.0200955103772797
     971.4392052525176950   -1493.3140490216458147       0.0202457094199264
     983.4768090451965463   -1492.9328828628090378       0.0203964369026605
     995.5313320312902761   -1492.5116333354103517       0.0205476957789683
    1007.6026976204186667   -1492.0503031159278180       0.0206994889989596
    1019.6908291151925141   -1491.5488951354989240       0.0208518195093492
    1031.7956497116947503   -1491.0074125799003468       0.0210046902534380
    1043.9170824999732758   -1490.4258588895306730       0.0211581041710947
    1056.0550504645264027   -1489.8042377593860692       0.0213120641987366
    1068.2094764847945498   -1489.1425531390368633       0.0214665732693114
    1080.3802833356487554   -1488.4408092326052611       0.0216216343122783
    1092.5673936878811219   -1487.6990104987362429       0.0217772502535893
    1104.7707301086982170   -1486.9171616505670954       0.0219334240156711
    1116.9902150622094723   -1486.0952676557030827       0.0220901585174058
    1129.2257709099249041   -1485.2333337361826580       0.0222474566741130
    1141.4773199112430575   -1484.3313653684419933       0.0224053213975310
    1153.7447842239480451   -1483.3893682832861032       0.0225637555957983
    1166.0280859047043123   -1482.4073484658458710       0.0227227621734351
    1178.3271469095495831   -1481.3853121555441703       0.0228823440313249
    1190.6418890943932638   -1480.3232658460567563       0.0230425040666963
    1202.9722342155112074   -1479.2212162852670190       0.0232032451731039
    1215.3181039300441171   -1478.0791704752277838       0.0233645702404107
    1227.6794197964939030   -1476.8971356721128814       0.0235264821547695
    1240.0561032752229949   -1475.6751193861725824       0.0236889837986041
    1252.4480757289531994   -1474.4131293816876678       0.0238520780505917
    1264.8552584232668323   -1473.1111736769178151       0.0240157677856440
    1277.2775725271026204   -1471.7692605440499847       0.0241800558748894
    1289.7149391132611527   -1470.3873985091486247       0.0243449451856545
    1302.1672791589051030   -1468.9655963521004196       0.0245104385814459
    1314.6345135460585425   -1467.5038631065563095       0.0246765389219322
    1327.1165630621151195   -1466.0022080598776029       0.0248432490629254
    1339.6133484003366902   -1464.4606407530752676       0.0250105718563632
    1352.1247901603567243   -1462.8791709807476309       0.0251785101502909
    1364.6508088486893939   -1461.2578087910208069       0.0253470667888426
    1377.1913248792307058   -1459.5965644854848051       0.0255162446122242
    1389.7462585737659992   -1457.8954486191260003       0.0256860464566946
    1402.3155301624758522   -1456.1544720002618760       0.0258564751545476
    1414.8990597844424428   -1454.3736456904716761       0.0260275335340947
    1427.4967674881559105   -1452.5529810045247814       0.0261992244196462
    1440.1085732320250372   -1450.6924895103134077       0.0263715506314938
    1452.7343968848842906   -1448.7921830287716602       0.0265445149858927
    1465.3741582265026864   -1446.8520736338086863       0.0267181202950432
    1478.0277769480944698   -1444.8721736522238643       0.0268923693670737
    1490.6951726528277504   -1442.8524956636376828       0.0270672650060218
    1503.3762648563376843   -1440.7930525004014726       0.0272428100118175
    1516.0709729872351090   -1438.6938572475241926       0.0274190071802646
    1528.7792163876210907   -1436.5549232425860282       0.0275958593030234
    1541.5009143135962404   -1434.3762640756519886       0.0277733691675930
    1554.2359859357788991   -1432.1578935891900528       0.0279515395572932
    1566.9843503398114990   -1429.8998258779777188       0.0281303732512470
    1579.7459265268819308   -1427.6020752890176482       0.0283098730243633
    1592.5206334142326341   -1425.2646564214423961       0.0284900416473188
    1605.3083898356799182   -1422.8875841264241444       0.0286708818865403
    1618.1091145421253259   -1420.4708735070801140       0.0288523965041878
    1630.9227262020770013   -1418.0145399183747941       0.0290345882581363
    1643.7491434021617351   -1415.5185989670255822       0.0292174599019585
    1656.5882846476451959   -1412.9830665114002386       0.0294010141849074
    1669.4400683629482955   -1410.4079586614182062       0.0295852538518986
    1682.3044128921658285   -1407.7932917784467008       0.0297701816434931
    1695.1812364995860207   -1405.1390824751977107       0.0299558002958799
    1708.0704573702082598   -1402.4453476156245415       0.0301421125408582
    1720.9719936102665088   -1399.7121043148113131       0.0303291211058206
    1733.8857632477429433   -1396.9393699388640471       0.0305168287137355
    1746.8116842328956864   -1394.1271621048038014       0.0307052380831297
    1759.7496744387767649   -1391.2754986804518467       0.0308943519280712
    1772.6996516617546149   -1388.3843977843171160       0.0310841729581523
    1785.6615336220345398   -1385.4538777854809268       0.0312747038784718
    1798.6352379641866719   -1382.4839573034807927       0.0314659473896181
    1811.6206822576609738   -1379.4746552081899154       0.0316579061876523
    1824.6177839973195205   -1376.4259906197009968       0.0318505829640904
    1837.6264606039551381   -1373.3379829082011838       0.0320439804058870
    1850.6466294248186841   -1370.2106516938526966       0.0322381011954176
    1863.6782077341435979   -1367.0440168466639079       0.0324329480104619
    1876.7211127336690879   -1363.8380984863656522       0.0326285235241867
    1889.7752615531721858   -1360.5929169822841232       0.0328248304051286
    1902.8405712509859313   -1357.3084929532087699       0.0330218713171779
    1915.9169588145343823   -1353.9848472672651951       0.0332196489195605
    1929.0043411608551196   -1350.6220010417764570       0.0334181658668220
    1942.1026351371297096   -1347.2199756431366495       0.0336174248088105
    1955.2117575212089378   -1343.7787926866678845       0.0338174283906593
    1968.3316250221453174   -1340.2984740364877325       0.0340181792527711
    1981.4621542807201422   -1336.7790418053689336       0.0342196800308000
    1994.6032618699721297   -1333.2205183545988803       0.0344219333556359
    2007.7548642957306129   -1329.6229262938363718       0.0346249418533870
    2020.9168779971439562   -1325.9862884809701882       0.0348287081453635
    2034.0892193472091094   -1322.3106280219712971       0.0350332348480607
    2047.2718046533070719   -1318.5959682707489264       0.0352385245731427
    2060.4645501577301729   -1314.8423328289995879       0.0354445799274254
    2073.6673720382182182   -1311.0497455460588299       0.0356514035128604
    2086.8801864084880435   -1307.2182305187482143       0.0358589979265180
    2100.1029093187662511   -1303.3478120912250233       0.0360673657605709
